1.0639,1.1171,1.195,1.2667,1.371,1.426,1.4501,1.5632,1.5716,1.6001,1.7087,1.7676,1.7756,1.8855,1.9147,1.9419,2.0114,2.0488,2.0778,2.212,2.2265,2.2744,2.3447,2.4537,2.479,2.5747,2.6158,2.5922,2.7119,2.7701,2.7864,2.8415,2.8997,2.9849,2.9964,3.0755,3.1642,3.2581,3.3117,3.3882,3.5091,3.6666,3.7906,4.0941,4.2917,4.6731,5.0815,5.7481,6.5399,7.5308,8.9217,10.242,12.233,14.483,17.105,20.219,23.754,27.227,31.005,34.449,38.246,42.218,46.464,50.954,54.562,59.022,63.964,68.319,72.481,76.602,80.928,85.195,89.629,94.199,98.503,103.01,107.15,111.74,116.42,121.73,126.97,132.41,137.99,143.32,148.75,154.47,160.06,166.13,172.14,178.3,185.19,192,199.05,205.78,212.28,219.23,225.91,234.13,242.12,247.83,255.13,263.42,270.83,278.99,287.06,295.73,304.38,313.64,323.31,332.46,342.09,349.59,358.24,367.51,377.68,387.79,398.23,409.02,419.54,432.06,442.87,453.93,464.75,473.05,483.61,494.17,505.7,517.98,531,543.61,556.78,567.15,577.05,587.36,597.58,606.08,617.47,629.09,640.97,652.47,663.83,675,685.36,695.75,706.47,720.02,730.54,738.04,748.81,759.96,771.94,784.32,796.02,808.68,820.23,831.6,842.23,852.64,867.4,873.26,886.85,904.36,919.51,934.63,948.42,958.88,974.25,984.41,993.54,1002.9,1012.2,1019.5,1031.1,1042.9,1055.5,1069.5,1080.6,1090.9,1099.8,1108.5,1116.7,1129.6,1137,1138.5,1145.6,1152.7,1161,1168.9,1175.9,1184.1,1190.9,1199,1206.9,1214.9,1222.7,1223.6,1229.2,1239.9,1245.6,1251.7,1255.3,1269.8,1279.8,1290.8,1302.1,1312.9,1322.7,1326.8,1333.9,1340.7,1348.7,1356.1,1366.7,1378.7,1392,1413.7,1432.5,1450.9,1469.2,1480.8,1495.6,1511.3,1525.7,1539.7,1555.4,1569.8,1584.5,1601,1619.5,1643.2,1653.2,1667.6,1678.6,1689.6,1700.2,1709.9,1718.7,1729.3,1737.2,1744.9,1752.5,1757.2,1755.1,1758.2,1761.7,1764.9,1769.1,1773.9,1780,1792.8,1799.9,1811.5,1823.8,1835.5,1840,1847.3,1851,1853,1852.9,1850.4,1848.4,1846.6,1852.2,1855.3,1860.1,1865.3,1865.3,1872.8,1881.2,1889.9,1896.5,1902.3,1904.7,1902.8,1896.9,1891.6,1892.8,1887.9,1879.6,1879,1880.1,1885.1,1889.7,1894.3,1897.5,1899.8,1902.1,1905,1914.6,1908.6,1908.9,1905.5,1902.7,1902,1899.3,1898.5,1897.1,1893.9,1893.4,1895.5,1895.6,1895.4,1888.1,1885.8,1891.6,1890.9,1887.7,1886,1877.5,1883.7,1885.1,1886.4,1888.3,1889.5,1883.4,1883.4,1881.3,1877.7,1875.4,1870.8,1868,1862.7,1864.5,1859.1,1853.3,1849.7,1840,1838.5,1838.3,1840.3,1840.9,1840.8,1841.3,1838.7,1843.2,1839.5,1834.5,1827.3,1811.3,1800.5,1791.3,1783.7,1775.9,1768.4,1761,1753.6,1749,1755.2,1753.6,1752.6,1739.2,1744.5,1743.1,1743,1739.6,1735.1,1729.3,1722.1,1713.8,1708.8,1699.7,1689.9,1674,1669,1657.2,1641.4,1631.5,1631,1616.8,1614.4,1606.7,1601.7,1595.1,1583.7,1583.4,1575.7,1568.9,1562.9,1548.7,1547.8,1539.5,1531.1,1523.5,1518,1510.1,1496.6,1488.2,1479.2,1468.7,1459.5,1449.1,1438.2,1426.3,1419.1,1407.7,1395.4,1382.4,1366.6,1355.6,1344.8,1334.5,1325,1314.4,1307.1,1296.7,1288.3,1285.2,1279,1271.2,1258.6,1250.3,1241.2,1231.3,1221.4,1210.5,1198.4,1185.9,1172.3,1160.6,1152.5,1134.6,1119.6,1111.3,1100.6,1091.1,1081.2,1071.2,1062.3,1052.5,1043.5,1034.5,1027.1,1019.8,1008.7,1001.1,993.52,986.62,979.99,971.79,968.42,960.83,951.97,943.85,933.16,923.98,908.7,898.37,887.91,877.4,867.15,858.08,850.51,842.09,838.78,831.21,824.34,813.29,806.15,798.75,791.2,784.33,778.36,771.32,765.28,758.6,752.39,747.58,744.07,737.24,732.04,726.28,720.44,715.15,709.31,702.43,696.01,688.51,681.44,674.92,669.92,660.44,653.48,646.69,639.94,633.55,626.87,620.74,614.27,607.91,601.91,596.02,589.29,583.19,577.22,569.13,564.92,558.06,552.3,548.9,544.45,539.46,534.68,529.83,525.18,520.52,514.43,509.57,503.78,498.64,493.12,487.34,481.35,475.1,468.38,462.5,455.42,448.73,442.17,435.63,429.29,423.37,416.97,411.25,405.67,399.97,394.06,388.98,383.42,378.1,373.3,368.03,363.4,358.95,354.61,350.54,346.9,342.97,338.99,335.56,331.85,327.88,324.23,319.97,316.17,312.23,307.85,303.7,299.31,294.71,290.37,285.93,280.95,276.28,271.07,266.28,261.93,257.37,253.42,249.14,245.4,240.99,237.27,233.61,229.62,226.09,222.47,218.87,215.14,211.35,207.79,204.23,200.38,196.61,192.92,189.14,185.65,182.17,178.48,174.94,171.25,167.78,164.14,160.59,157.01,153.72,150.24,147.22,143.89,140.78,137.44,134.47,131.5,128.65,125.59,122.91,119.99,117.22,114.52,112.14,109.58,107.12,104.76,102.45,100.25,97.835,95.603,93.439,90.974,88.947,86.944,84.493,82.477,80.513,78.749,76.989,75.794
1.0921,1.1606,1.2463,1.3177,1.3904,1.4883,1.5281,1.5838,1.6258,1.6906,1.7078,1.8579,1.806,1.8842,1.9468,1.9685,2.0284,2.0581,2.116,2.224,2.2399,2.2828,2.349,2.4153,2.5269,2.5666,2.5827,2.6666,2.6899,2.7702,2.821,2.8432,2.9787,3.0101,3.0048,3.0566,3.1444,3.2016,3.2857,3.3981,3.5071,3.6115,3.7633,4.0286,4.3206,4.6193,5.1635,5.7923,6.465,7.4476,8.8478,10.182,12.213,14.409,17.091,20.243,23.637,27.182,30.861,34.506,38.078,42.263,46.381,50.821,54.499,58.911,63.671,68.146,72.518,76.545,80.758,85.174,89.499,94.208,98.551,102.98,107.16,111.85,116.63,121.82,127.21,132.48,138.16,143.47,149.03,154.5,160.38,166.55,172.33,178.63,185.27,192.33,199.18,205.99,212.77,219.76,226.12,234.69,242.41,248.34,255.86,263.8,271.32,279.4,287.54,296.03,304.96,314.23,323.84,333.12,342.63,350.24,359.09,368.43,378.25,388.68,399.13,410.09,420.44,432.91,443.94,455.13,465.73,474.27,484.51,495.19,506.66,519.02,531.85,544.43,557.92,568.28,578.2,588.34,598.86,607.28,618.77,629.85,642.26,654.35,665.25,676.21,687.05,697.23,708.05,721.61,731.9,739.78,750.85,761.52,773.5,786.08,797.92,810.69,822.11,833.42,843.78,855.21,869.54,875.38,889.22,906.85,921.96,937.48,950.98,961.48,976.62,986.74,996.22,1005.5,1014.7,1021.9,1033.5,1045.7,1058.4,1072,1083.1,1093.4,1102.4,1110.8,1118.9,1131.4,1139.2,1140.8,1147.8,1155.2,1163.3,1171.2,1178.4,1186.5,1193.4,1201.1,1209.4,1217.3,1225,1226,1231.3,1242.2,1248.5,1254.1,1258.1,1271.9,1282.6,1293.7,1304.5,1315.8,1325.7,1329.6,1337,1343.5,1351.7,1359.2,1369.8,1382,1395.7,1417.8,1436.5,1454.7,1473.1,1484.9,1500.2,1515.7,1530,1544.3,1559.8,1574.4,1589.6,1605.8,1624.3,1648,1657.8,1672.9,1683.6,1694.1,1705.5,1715.5,1724.2,1734.7,1742.2,1749.8,1757.6,1762.5,1760.8,1763.6,1766.7,1770.3,1774.7,1779.5,1785.6,1798.6,1806,1817.1,1829.8,1841.5,1846,1853.3,1857,1858.5,1858.7,1856.1,1853.4,1851.8,1858.1,1860.8,1866.5,1871.2,1871.2,1879.1,1887.2,1895.6,1902.4,1907.9,1910.6,1908.3,1902.2,1897.4,1898.6,1893.5,1885.4,1885,1885.9,1890.7,1895.8,1900.1,1903.7,1905.9,1908,1911.4,1921.2,1914.8,1914.8,1911.6,1908.7,1908.1,1905.2,1904.2,1902.3,1899.3,1899.1,1901.7,1902,1901.4,1894.4,1892.2,1898.2,1896.9,1894.3,1892,1883.1,1889.9,1891,1892.9,1894.3,1895.2,1889.5,1889.4,1887.7,1884.1,1881.9,1877.5,1874.1,1868.7,1870.4,1865,1859.1,1856.3,1846.9,1845.2,1844.8,1846.5,1847.1,1847.2,1847.8,1844.9,1849.7,1845.8,1839.7,1832.6,1817.1,1806.7,1797,1789.9,1781.6,1774.4,1767,1759.5,1755.3,1761.4,1760,1759.2,1745.4,1750.9,1749.5,1749.1,1746,1741.3,1735.2,1728.2,1720.3,1715.1,1706.1,1696,1679.7,1674.4,1662.6,1646.6,1637.3,1636.3,1622.2,1620,1612.2,1606.8,1601,1589.2,1588.9,1581.8,1574.6,1568.9,1554.5,1553.1,1545.1,1536.5,1529,1523.6,1514.9,1501.8,1493.3,1484.3,1474.3,1465.3,1454.7,1443.2,1431.5,1424.2,1413.1,1400.3,1387.5,1371.6,1360,1349.2,1339.7,1330,1319.4,1311.8,1301.3,1293,1289.6,1283,1275.5,1262.8,1254.9,1245.9,1235.9,1225.7,1214.5,1202.6,1190.3,1176.4,1164.6,1156.4,1138.8,1123.3,1115.6,1104.8,1095,1085.1,1075.1,1066.1,1056.3,1047.4,1038.7,1031.5,1024,1012.7,1004.8,997.46,990.38,983.75,975.41,971.88,964.67,955.66,947.11,937.43,927.45,912.52,901.9,891.41,880.83,870.7,861.49,853.86,845.6,841.94,834.12,827.61,816.49,809.21,801.67,794.5,787.25,781.26,774.06,767.73,761.72,755.48,750.4,747.19,740.06,734.54,729.36,723.13,717.93,712.13,705.23,698.49,691,683.91,677.47,672.18,662.69,656.06,649.25,642.04,636.09,629.22,622.9,616.39,610.28,604.05,597.95,591.43,585.24,579.48,571.28,567.1,560.19,554.44,550.96,546.12,541.39,536.73,532.21,527.09,522.62,516.05,511.61,505.55,500.61,494.94,489.37,483.02,476.85,469.94,463.98,456.99,450.28,444.09,437.25,430.92,424.94,418.83,412.84,407.32,401.33,395.41,390.57,384.99,379.56,374.71,369.51,364.8,360.36,355.7,352.13,347.92,344.05,340.21,336.73,332.98,329.17,325.4,321.11,317.31,313.17,308.63,304.74,300.2,295.73,291.48,286.79,281.81,277.08,272.05,267.15,262.81,258.28,254,250.02,246.04,241.84,238.07,234.29,230.42,226.75,223.14,219.5,215.79,212.09,208.27,204.91,200.95,197.3,193.6,189.89,186.3,182.83,179.09,175.67,171.96,168.19,164.6,160.97,157.55,154.18,150.91,147.51,144.39,141.2,137.81,134.86,131.9,129.09,126.07,123.25,120.45,117.58,115,112.5,109.91,107.36,105.04,102.69,100.48,98.155,95.964,93.71,91.371,89.183,86.923,84.746,82.548,80.762,78.838,77.135,76.038
1.0649,1.1582,1.1987,1.2829,1.3756,1.4333,1.4945,1.5631,1.5853,1.6517,1.7215,1.7267,1.8415,1.8373,1.9536,1.9094,1.9256,2.0372,2.0822,2.1634,2.2506,2.297,2.377,2.4554,2.5095,2.5239,2.5306,2.6178,2.6946,2.7326,2.836,2.8489,2.9733,2.9768,3.0085,3.1126,3.1264,3.2344,3.2403,3.3868,3.5033,3.5856,3.7917,4.0313,4.2755,4.6627,5.0224,5.7407,6.4394,7.4011,8.7828,10.198,12.058,14.377,17.163,20.184,23.407,27.022,30.547,34.276,38.003,41.875,46.102,50.478,54.077,58.397,63.359,67.659,71.911,75.812,80.372,84.473,89.062,93.449,97.745,102.19,106.4,110.81,115.59,120.75,125.92,131.41,136.93,142.17,147.73,153.16,158.81,164.95,170.58,176.9,183.61,190.43,197.18,203.96,210.6,217.62,223.97,232.41,240.21,246.15,253.34,261.35,268.78,276.74,284.84,293.26,302.02,311.03,320.71,330.15,339.25,346.77,355.62,364.76,374.69,384.81,395.21,405.83,416.17,428.88,439.51,450.31,461.4,469.79,479.99,490.55,501.73,514.04,526.81,539.39,552.89,563.1,573.08,582.84,593.45,601.85,613.4,624.41,636.77,648.52,659.49,670.52,681.12,691.32,702.1,715.27,725.84,733.77,744.42,755.4,767.47,779.8,791.36,804.07,815.43,826.54,837.36,848.09,862.63,868.6,881.98,899.71,914.78,929.77,943.71,954.17,968.91,979.22,988.57,997.83,1007.3,1014.8,1025.9,1038,1050.1,1064.3,1075.4,1085.5,1094.7,1103.2,1111.1,1124,1131.7,1133.4,1140,1147.4,1155.4,1163.1,1170.5,1178.4,1185.4,1193.4,1201.3,1209.1,1216.8,1218.1,1222.9,1234.3,1239.9,1246.2,1250,1264.3,1274.5,1285.4,1296.2,1307.5,1316.8,1320.8,1327.8,1335.1,1343.2,1350.4,1360.8,1373.1,1386.4,1408.3,1427.2,1445.3,1463.7,1475.1,1490.6,1505.6,1520.1,1534.3,1549.6,1564,1578.9,1595.2,1613.6,1637.3,1647.1,1662.1,1673,1683.4,1694.2,1704.6,1713.2,1723.4,1731.2,1738.9,1746.5,1751.1,1749.8,1752.3,1756.1,1759.3,1763.5,1768.3,1774.6,1787.1,1794.8,1805.8,1818.7,1829.9,1834.8,1841.9,1845.6,1847.1,1847.8,1845,1842.8,1840.9,1847.4,1850,1854.5,1859.7,1860.2,1867.7,1876,1884.7,1890.6,1896.8,1899.1,1897.2,1891.4,1886.4,1887.4,1882.6,1874.3,1874,1875.4,1880,1884.8,1889.8,1892.7,1895,1896.9,1900.3,1910.2,1903.7,1904,1901.1,1898.2,1897.2,1894.4,1893.8,1891.7,1889,1888.8,1891.4,1892,1891.6,1884.1,1881.6,1887.8,1886.8,1883.6,1882.2,1873.3,1879.9,1880.9,1882.9,1884.3,1885.2,1879.8,1879.2,1878,1874.6,1872.1,1867.2,1864.2,1859,1861,1855.7,1850.2,1846.9,1837.6,1836.1,1835.4,1837.4,1837.7,1837.8,1838.3,1835.6,1840.7,1836.5,1831.4,1824.4,1808.3,1798.2,1788.6,1781.3,1773,1766.1,1758.7,1751.3,1747.4,1753,1751.4,1750.7,1737.7,1742.5,1741.5,1740.8,1738.3,1733.1,1727.6,1720.3,1712.3,1707.1,1698.2,1687.9,1672.4,1667.1,1655.4,1640,1630.3,1629.1,1615.2,1612.9,1605.7,1599.6,1593.9,1582.1,1582,1574.3,1567.9,1561.8,1547.5,1546.4,1538.4,1529.8,1522.4,1516.9,1508.8,1495.7,1486.9,1478.4,1468.2,1458.8,1448.2,1437.2,1425.5,1418.7,1406.9,1394.5,1381.7,1366,1354.3,1343.6,1333.8,1324.6,1314,1306.5,1296.4,1287.6,1284.9,1278.4,1270.9,1258.3,1250,1241.4,1231.4,1221.1,1210.2,1198.1,1185.9,1172.4,1160.4,1152.3,1134.9,1119.2,1111.5,1100.9,1091.3,1081.4,1071.3,1062.3,1052.7,1044.1,1034.6,1027.7,1020.4,1008.6,1000.9,993.77,987.19,980.41,972.4,968.82,961.33,952.46,944.29,934.22,924.5,909.52,898.89,888.18,877.81,867.77,858.63,851.13,843.03,839.5,831.51,824.88,814.05,806.53,799.13,792.03,784.69,778.87,771.61,765.32,759.35,753.28,747.96,744.7,737.95,732.53,726.74,720.93,715.49,709.79,703.02,696.46,688.76,681.77,675.33,670.08,660.81,654.03,646.92,640.09,634.28,627.38,620.86,614.45,608.25,602.3,595.99,589.42,583.4,577.47,569.38,565.3,558.15,552.49,549.11,544.24,539.47,534.92,530.11,525.16,520.59,514.25,509.49,503.52,498.71,493.09,487.49,481.21,474.96,468.22,462.09,455.11,448.42,442.18,435.46,429.15,423.02,416.89,410.95,405.38,399.65,393.93,388.87,383.1,377.81,373.02,367.77,363.13,358.7,354.38,350.3,346.39,342.6,338.52,335.28,331.5,327.74,324.06,319.75,315.93,311.94,307.58,303.52,298.89,294.36,290.07,285.56,280.64,276.01,271.03,266.1,261.64,257.27,252.94,248.98,245.24,240.81,237,233.24,229.55,226.08,222.12,218.69,215.06,211.21,207.52,204.04,200.22,196.43,192.77,189.1,185.48,181.98,178.38,174.67,171.04,167.48,163.8,160.29,156.99,153.38,150.24,146.9,143.68,140.69,137.33,134.28,131.36,128.47,125.51,122.74,119.98,117.18,114.54,111.96,109.65,106.9,104.55,102.41,100.02,97.785,95.731,93.236,90.984,88.855,86.739,84.452,82.442,80.352,78.52,76.931,75.759
1.0418,1.1529,1.2279,1.2931,1.3579,1.4646,1.4822,1.5813,1.6715,1.6654,1.7002,1.7501,1.8581,1.8735,1.9272,1.9399,2.0147,2.0576,2.1267,2.1506,2.2358,2.2395,2.3123,2.3487,2.4384,2.5641,2.5871,2.674,2.6853,2.7781,2.7898,2.8226,2.9083,2.9957,2.9867,3.0053,3.1361,3.2145,3.2474,3.3697,3.4528,3.6318,3.7645,3.9847,4.2606,4.6139,5.1226,5.7041,6.4992,7.5223,8.8178,10.168,12.049,14.337,17.204,20.231,23.491,26.974,30.627,34.324,37.973,41.953,46.183,50.498,54.038,58.517,63.369,67.591,71.943,75.94,80.448,84.586,89.117,93.549,97.899,102.36,106.48,110.98,115.89,120.95,126.18,131.63,137.31,142.44,148.22,153.62,159.26,165.47,171.22,177.69,184.32,191.04,198,204.72,211.44,218.31,224.88,233.37,241.08,246.91,254.13,262.46,269.67,277.73,285.94,294.26,302.95,311.93,321.79,330.95,340.39,347.95,356.58,365.79,375.75,386.04,396.49,407.07,417.68,430.07,440.74,451.78,462.68,470.89,481.22,491.65,503.06,515.75,528.4,540.94,554.32,564.34,574.28,584.49,594.78,603.44,614.74,626.32,638.29,649.92,660.82,672.08,682.65,693.05,703.61,716.68,727.35,735.4,746.02,757.01,769.19,781.78,793.47,806,817.46,828.84,839.33,850.23,864.64,870.67,884.51,902.22,917.1,932.3,946,956.12,971.04,981.27,990.52,999.63,1009.2,1016.7,1028.1,1040.1,1052.4,1066.4,1077.2,1087.5,1096.1,1104.4,1113.3,1125.6,1133,1134.7,1141.9,1149.1,1156.7,1164.8,1172.2,1179.9,1187.3,1194.9,1203.2,1210.8,1218.7,1220.2,1225.3,1236.4,1242,1248.2,1252.2,1266.7,1277.1,1288,1299.2,1310.1,1320.1,1323.7,1331,1337.4,1345.3,1353.3,1363.9,1376.4,1390.5,1412.3,1431.4,1449.2,1467.6,1479,1494.6,1509.5,1523.4,1538,1552.8,1567.9,1582.6,1599.1,1617.5,1641.3,1650.9,1665.9,1676.7,1687.4,1698.1,1708.1,1716.9,1727,1735.1,1742.3,1750.5,1754.6,1752.9,1756,1759.3,1763.5,1767.3,1771.7,1778.1,1791,1798.8,1809.7,1822.7,1833.9,1839.1,1846.2,1849.7,1851,1851,1848.7,1845.9,1844.4,1850.8,1853.4,1858.9,1863.5,1863.9,1871.7,1879.8,1889.1,1895.1,1900.6,1903.2,1900.7,1894.4,1889.5,1890.2,1885.3,1877.2,1876.6,1878.4,1883,1888.5,1892.4,1896.5,1898.6,1900.5,1904,1913.8,1907.7,1907.3,1904.1,1900.7,1900.5,1897.3,1896.1,1895,1892.2,1891.9,1894.7,1895.2,1895.4,1888,1885.6,1891.6,1890.4,1887.6,1885,1876.3,1883.1,1884,1885.9,1887.4,1888.9,1882.9,1882.5,1881.5,1877.4,1875.1,1870.9,1868,1862.3,1864.4,1859.1,1854,1850.2,1841.2,1840.1,1839.8,1841.3,1841.9,1842.3,1843,1839.8,1844.9,1840.4,1834.9,1828.3,1812.5,1801.8,1792.7,1785.1,1777.1,1770.7,1763.2,1755.7,1751.4,1757.5,1755.4,1755.2,1741.5,1747.2,1746.2,1745.2,1742.5,1737.4,1732.2,1725.3,1716.9,1711.8,1703,1692.2,1676.7,1670.8,1659.5,1643.9,1634.2,1633,1618.9,1616.6,1610,1604.3,1598.2,1586,1586.3,1578.6,1572.7,1566.3,1551.7,1550.7,1543.1,1534,1527.3,1521.6,1512.7,1499.6,1490.6,1481.9,1471.8,1462.6,1451.9,1440.9,1428.8,1422.4,1411.3,1398.1,1385.9,1369.8,1358.1,1347.4,1337.7,1328.3,1317.2,1309.7,1299.3,1290.8,1287.9,1281.3,1273.5,1260.7,1252.7,1243.8,1234.1,1224.2,1213,1200.7,1188.6,1174.7,1162.7,1154.5,1137.1,1121.7,1113.9,1103.3,1093.7,1083.9,1073.9,1064.8,1055.2,1046.3,1037.7,1030.1,1023,1011.6,1003.9,996.39,989.65,982.81,974.84,971.63,963.76,955.35,946.49,936.63,926.8,911.76,901.06,890.54,879.74,870.3,860.89,853.23,844.76,841.6,833.44,827.22,815.94,808.67,801.42,793.58,786.45,780.76,773.48,767.14,761.2,755.15,749.73,746.81,739.63,734.38,728.79,722.82,717.42,711.65,704.67,698.09,690.62,683.07,677.08,671.57,662.51,655.55,648.49,641.61,635.53,628.21,622.17,615.78,609.58,603.28,597.35,590.38,584.62,578.41,570.41,566.4,559.14,553.41,550.3,545.54,540.62,535.85,531.05,526.14,521.37,515.47,510.59,504.71,499.73,494.42,488.49,482.18,476.09,469.21,463.25,456.31,449.47,443.33,436.5,430.12,423.95,417.58,411.89,406.06,400.53,394.66,389.64,384.15,378.68,373.82,368.49,363.66,359.36,355.16,351,346.89,343.18,339.33,335.77,332.23,328.32,324.65,320.76,316.4,312.61,307.96,304.03,299.65,295.17,290.65,285.99,281.28,276.26,271.25,266.39,262.1,257.7,253.35,249.34,245.54,241.24,237.59,233.7,229.72,226.14,222.58,218.9,215.38,211.58,207.93,204.36,200.64,196.67,193.04,189.47,186.02,182.4,178.81,174.98,171.31,167.64,164.18,160.55,157.28,153.71,150.61,147.08,144.1,140.85,137.69,134.51,131.59,128.76,125.76,122.9,120.19,117.33,114.68,112.2,109.66,107.17,104.72,102.57,100.16,97.802,95.616,93.471,91.291,88.985,86.937,84.61,82.468,80.532,78.688,77.138,75.765
1.0408,1.1323,1.2064,1.2822,1.3357,1.4111,1.5181,1.5028,1.5944,1.6461,1.6907,1.8179,1.8191,1.829,1.9005,1.9369,1.9489,2.0233,2.1153,2.112,2.201,2.2942,2.3048,2.3831,2.4288,2.5118,2.5703,2.6242,2.6367,2.7066,2.7463,2.8003,2.8451,2.9094,2.9445,2.9849,3.082,3.1708,3.2789,3.3458,3.429,3.614,3.7822,3.9835,4.2973,4.6056,5.0907,5.6732,6.4658,7.4313,8.7522,10.166,12.01,14.41,17.103,20.245,23.631,27.062,30.756,34.455,38.05,42.052,46.314,50.646,54.165,58.562,63.539,67.913,72.182,76.253,80.628,84.961,89.425,93.833,98.212,102.53,106.84,111.33,116.26,121.48,126.68,132.1,137.69,143.1,148.42,154.21,159.9,165.98,171.7,178.15,184.84,191.67,198.59,205.23,211.89,218.85,225.46,233.86,241.58,247.59,254.73,262.68,270.27,277.99,286.33,294.71,303.54,312.69,322.21,331.49,340.63,348.34,356.96,366.27,375.94,386.31,396.72,407.47,418.02,430.36,441.05,451.97,462.54,471.03,481.2,491.71,503.06,515.38,528.22,540.77,553.53,563.63,573.68,583.74,594.04,602.49,613.71,625.15,637.39,648.88,659.9,670.89,681.38,691.16,701.75,715.02,725.15,733.35,743.97,754.71,766.91,779.42,790.91,803.48,814.66,825.66,835.93,846.44,860.92,866.95,880.08,898.08,912.42,927.19,941.3,951.22,965.72,975.64,984.61,993.84,1003.3,1010.6,1021.7,1033.1,1045.3,1059,1069.8,1080,1088.7,1096.6,1105.1,1118,1124.9,1127,1133.7,1140.7,1148.5,1156.4,1163.4,1171.3,1178,1185.9,1193.9,1201.3,1209.2,1210.7,1216.1,1226.6,1232.4,1238.3,1242.1,1256.5,1266.8,1278,1289.3,1299.9,1309.6,1312.8,1320.3,1326.8,1334.7,1342.2,1352.8,1365.1,1379,1400.8,1419.9,1437.4,1456,1467.2,1482.4,1497,1511.6,1525.3,1540,1555,1569.4,1585.5,1604.2,1627.8,1637.2,1652.5,1663.1,1673.3,1684.4,1693.9,1702,1711.9,1720.3,1727.6,1735.6,1739.9,1738.2,1741.2,1744.3,1748.3,1751.8,1756.3,1762.9,1775.6,1783.2,1794.6,1807.1,1818.5,1822.7,1830,1833.3,1834.8,1835,1832.2,1829.6,1827.9,1834.2,1836.7,1842.3,1846.8,1847.3,1854.9,1862.9,1871.9,1878.2,1883,1885.6,1883.2,1877.1,1871.9,1873.5,1868.6,1859.8,1859.7,1861.2,1866,1870.6,1875.2,1879.2,1880.8,1883.3,1886.9,1896,1889.5,1889.4,1886.1,1883,1882.5,1879.6,1878.4,1877,1874,1874.1,1877.2,1877.8,1877.4,1870.2,1868,1874.3,1872.2,1869.9,1867.7,1859,1865,1865.8,1868.5,1869.7,1871.1,1864.7,1864.7,1863.3,1859.6,1857.3,1852.8,1850.3,1844.2,1846.3,1841.3,1836.3,1832.8,1823.8,1821.8,1821.9,1823.5,1824,1824.8,1825.1,1822.1,1826.7,1822.3,1817,1810.6,1794.7,1784.5,1775.1,1767.7,1759.8,1753.1,1745.6,1738,1733.8,1740.3,1738.7,1738.6,1725,1730.5,1729,1728.4,1725.5,1720.8,1715.1,1708.2,1700.3,1694.9,1686,1675.7,1660.1,1654.3,1643.9,1627.8,1618.3,1617.5,1603.3,1601.1,1594.3,1588.6,1582.5,1570.5,1571,1563.5,1557.1,1550.6,1536.3,1535.7,1528.1,1519.2,1512.1,1506.5,1498.2,1484.8,1476.6,1467.9,1457.7,1448.4,1437.7,1426.8,1414.7,1408.5,1397.4,1384.6,1372.2,1356.5,1344.9,1334.3,1324.6,1315.3,1304.5,1297.1,1286.6,1278.2,1275.9,1269.1,1261.1,1248.6,1240.8,1232,1222.1,1212.1,1201,1188.9,1177.3,1163.6,1151.8,1143.6,1126.1,1110.9,1103.5,1092.5,1083.1,1073.4,1063.3,1054.7,1044.8,1036.2,1027.5,1020.2,1012.8,1001.8,994.03,986.86,980.05,973.38,965.48,962.05,954.37,945.95,936.97,927.44,917.86,902.59,892.35,882.25,871.44,861.79,852.48,845.15,836.79,833.47,825.72,818.97,808,800.8,793.74,786.03,779.02,773.56,766.42,759.77,754,748,742.79,739.43,732.89,727.23,721.97,716.1,710.39,704.66,697.99,691.55,684.06,676.49,670.42,665.45,655.93,649.26,642.39,635.33,629.49,622.22,616.33,610.08,603.72,597.65,591.58,584.73,579.03,573.07,564.97,560.88,553.84,548.06,544.84,540.04,535.39,530.55,525.81,520.81,516.08,510.28,505.44,499.66,494.87,489.52,483.82,477.6,471.47,464.85,458.75,451.87,445.24,439.01,432.4,425.99,420.12,413.66,408.32,402.55,396.78,390.81,385.94,380.36,374.96,370.05,365,360.34,356.4,351.81,347.96,343.92,340.01,336.21,333.02,329.35,325.29,321.67,317.46,313.48,309.71,305.22,301.09,296.74,292.39,287.75,283.35,278.46,273.81,268.82,263.98,259.56,255.25,250.87,247.11,243.04,238.84,235.12,231.44,227.59,223.91,220.45,216.68,213.16,209.46,205.87,202.23,198.36,194.62,191.09,187.63,183.99,180.64,176.75,173.19,169.61,166.07,162.62,159.03,155.73,152.31,148.99,145.73,142.58,139.34,136.25,133.1,130.29,127.45,124.47,121.64,118.83,116.19,113.56,111.2,108.57,106.13,103.86,101.63,99.329,97.179,94.706,92.689,90.432,88.201,86.074,83.922,81.745,79.825,77.878,76.367,75.012
1.0727,1.1635,1.2502,1.2661,1.3458,1.4001,1.4556,1.5669,1.5978,1.6593,1.7233,1.8338,1.854,1.9349,1.9644,2.0349,2.0761,2.1138,2.1767,2.1919,2.2375,2.2952,2.2592,2.411,2.4099,2.4735,2.5349,2.5895,2.6431,2.7026,2.7713,2.8441,2.9287,2.9315,3.008,3.0721,3.0668,3.1923,3.3143,3.3731,3.4624,3.6329,3.7602,4.0364,4.352,4.6097,5.1262,5.668,6.491,7.4268,8.7583,10.143,11.967,14.357,16.971,20.065,23.453,26.861,30.509,34.07,37.669,41.712,45.858,50.276,53.656,58.189,62.847,67.208,71.395,75.391,79.768,84.035,88.414,93.01,97.172,101.52,105.66,110.17,115.06,120.05,125.26,130.62,135.98,141.41,147.01,152.22,157.96,163.99,169.86,175.96,182.67,189.54,196.23,202.87,209.74,216.54,223.03,231.37,239.14,245.05,252.18,260.13,267.61,275.54,283.54,291.71,300.52,309.69,319.24,328.39,337.52,345.06,353.87,362.97,372.72,382.87,393,404.08,414.26,426.72,437.35,448.26,458.75,467.38,477.34,487.83,499.19,511.55,524.13,536.89,550.02,560.14,570.09,580.1,590.39,598.41,610.06,621.27,633.29,644.68,655.64,666.5,677,687.17,697.73,711,721.42,729.29,740.07,750.96,762.9,775.1,787.02,799.47,811.1,822.05,832.48,843.44,857.74,863.76,877.16,894.65,909.57,924.68,938.5,948.76,963.98,974.15,983.38,992.6,1001.8,1009.3,1021,1032.4,1044.6,1058.6,1069.8,1080.2,1088.9,1097.6,1106.3,1118.4,1126.1,1127.7,1134.3,1141.8,1149.7,1157.4,1164.9,1172.7,1179.9,1187.4,1195.8,1203.3,1211,1212.1,1217.5,1228.5,1234.2,1240,1244.1,1258.1,1268.3,1279.3,1290.4,1301.3,1310.8,1315.1,1321.9,1328.7,1336.5,1344.1,1354.7,1367.1,1380,1401.6,1420.3,1438.5,1456.9,1468,1483.6,1498.6,1513.3,1527,1542.7,1556.6,1571.5,1587.8,1606.2,1630.1,1639.8,1654.8,1665.5,1676,1687,1696.9,1705.4,1715.8,1723.8,1731.7,1739.1,1743.6,1742.1,1744.9,1748.6,1751.6,1756,1761.2,1767.1,1779.6,1787.2,1798.1,1810.5,1822.6,1827,1834.3,1838.2,1839.5,1840.1,1837.6,1835.5,1833.5,1839.7,1842.7,1847.9,1852.5,1852.7,1860.2,1869.1,1877.4,1883.5,1889.6,1891.6,1890.4,1884.4,1879.6,1881,1875.7,1867.6,1867,1868.3,1873.2,1878.4,1882.6,1886.1,1888.1,1890.5,1894,1903.6,1897.1,1897.8,1894.8,1892,1891.1,1888.8,1887.5,1886.1,1883.5,1882.9,1885.6,1885.9,1885.2,1878.5,1876.4,1882.3,1881.8,1878.6,1876.7,1868.5,1874.8,1875.8,1877.3,1879.6,1880.5,1874.7,1874.5,1873.3,1869.4,1867.3,1862.6,1859.8,1855.1,1856.6,1851.5,1845.7,1842.5,1832.8,1831.5,1831,1832.9,1834.1,1833.9,1834.6,1831.7,1837,1833,1827.9,1820.6,1805.1,1794.4,1785.3,1778,1770.5,1763,1755.7,1748.7,1744.5,1750.2,1748.8,1748,1734.5,1740.1,1739,1738.3,1735.4,1730.7,1725.3,1718.7,1710.4,1705.5,1696.6,1686.4,1670.6,1665.8,1654.2,1638.7,1628.9,1627.9,1614,1611.5,1604.5,1599.3,1593.2,1581.4,1581.3,1574.1,1567.8,1561.7,1547.9,1546.1,1538.6,1530.3,1522.8,1517.2,1509,1496.2,1487.8,1478.7,1469.1,1460.1,1449.5,1438.5,1426.8,1419.3,1408.4,1395.9,1382.9,1367.4,1356.1,1345.3,1336,1326.4,1315.9,1308.9,1298.3,1289.4,1287,1280.6,1272.9,1260.7,1252.5,1244.1,1234,1223.8,1213.2,1200.8,1188.5,1175.1,1163.5,1155.6,1138.1,1122.6,1114.7,1103.9,1094.8,1084.9,1074.9,1065.4,1056.2,1047.5,1038.6,1031.2,1024.3,1012.6,1005.2,997.44,991.16,983.97,976.14,972.48,965.52,956.31,948.4,937.77,928.3,913.37,902.99,892.44,881.9,871.61,862.34,854.81,846.67,842.85,835.36,828.52,817.46,810.31,802.57,794.94,787.71,782,774.7,768.55,762.11,756.08,750.83,747.67,740.59,735.13,729.39,723.34,717.88,712.13,705.24,698.58,691.15,683.92,677.37,671.74,662.53,655.6,648.64,641.54,635.4,628.37,622.03,615.49,609.16,602.96,596.83,590.23,583.82,578.07,569.7,565.66,558.71,552.93,549.39,544.55,539.43,534.66,529.93,524.9,520.01,514.1,508.91,503.24,497.88,492.19,486.65,480.52,474.26,467.24,461.28,454.44,447.36,441.03,434.6,428.4,422.18,415.95,410.19,404.59,398.45,392.72,387.76,382.14,376.85,372.02,366.67,361.83,357.64,353.02,349.11,345.15,341.18,337.31,333.95,330.3,326.2,322.78,318.6,314.52,310.43,306.1,301.99,297.61,293.1,288.74,284.19,279.32,274.59,269.63,264.53,260.39,255.81,251.69,247.76,243.66,239.59,235.84,232.01,228.35,224.64,221,217.44,213.88,210.11,206.47,202.83,199,195.25,191.64,188.09,184.47,180.91,177.32,173.74,170.1,166.58,162.92,159.37,155.95,152.68,149.35,146,142.95,139.81,136.57,133.44,130.53,127.77,124.76,122.01,119.1,116.59,113.94,111.28,108.93,106.33,103.98,101.75,99.474,97.196,95.043,92.836,90.545,88.344,86.2,83.861,81.821,79.899,78.076,76.463,75.135
1.1387,1.2111,1.2551,1.2984,1.4333,1.4482,1.5133,1.5934,1.6727,1.7243,1.7563,1.8522,1.8548,1.9428,2.0203,2.0361,2.0906,2.1477,2.1375,2.2037,2.2262,2.2799,2.3237,2.3586,2.4599,2.5365,2.5689,2.6397,2.6739,2.7288,2.7895,2.8488,2.8878,2.999,3.0256,3.0486,3.0956,3.1878,3.2714,3.3844,3.4514,3.6393,3.767,3.9855,4.3242,4.6441,5.13,5.7487,6.4804,7.5151,8.9565,10.378,12.248,14.56,17.292,20.344,23.786,27.343,30.788,34.544,38.2,42.132,46.488,50.711,54.471,58.825,63.728,68.016,72.265,76.2,80.442,84.854,89.498,93.873,98.11,102.72,106.81,111.28,116.12,121.48,126.66,132.03,137.56,142.9,148.25,153.95,159.58,165.54,171.48,177.84,184.32,191.31,198.2,204.84,211.64,218.59,225.1,233.57,241.25,247.05,254.42,262.45,269.89,277.82,285.99,294.3,303.2,312.44,322.04,331.24,340.55,348.08,356.9,366.06,376.01,386.24,396.63,407.45,417.88,430.37,441.07,452.2,462.74,471.69,481.64,492.4,503.61,515.93,528.85,541.35,554.89,564.75,574.77,584.76,595.11,603.77,615.03,626.28,638.5,650.24,661.43,672.14,682.93,692.95,703.82,717.46,727.73,735.63,746.67,757.55,769.58,782.01,793.74,806.47,818.3,829.54,840.19,851.15,865.9,871.86,885.37,903.19,918.08,933.61,947.35,957.9,972.91,982.84,992.45,1001.8,1011.2,1018.5,1030,1041.9,1054.4,1068.1,1079.3,1089.9,1098.3,1107,1115,1127.7,1135.5,1137.1,1144,1151.4,1159.5,1167.2,1174.7,1182.4,1189.2,1197.2,1205,1213,1220.9,1222.2,1227.5,1238.5,1244.4,1250.6,1254.2,1267.8,1278.8,1289.6,1300.7,1311.5,1321.4,1325.6,1332.7,1339.7,1347.3,1354.7,1365.7,1377.8,1391.3,1413.1,1431.8,1450.1,1468.4,1480,1495.8,1511.1,1525.7,1539.8,1554.8,1569.6,1584.6,1600.9,1619,1643.3,1653,1667.9,1678.7,1689.6,1700.4,1710.3,1719.3,1729.6,1737.5,1745.5,1752.9,1757.8,1755.9,1758.7,1762.2,1766.1,1770.1,1775.5,1781.1,1793.5,1801.6,1812.7,1825.3,1837.4,1841.8,1849.2,1852.6,1854.4,1854.7,1851.9,1849.9,1847.8,1854.2,1856.9,1862.3,1867.2,1867.4,1875.1,1883.5,1892.6,1899,1904.3,1906.9,1905.4,1899,1894.3,1895.8,1890.8,1882,1882.3,1883.1,1887.8,1892.7,1897.8,1900.6,1903,1905.2,1909.1,1918.7,1912.2,1912.8,1909.9,1906.8,1906.4,1903.6,1902.3,1901.1,1897.7,1897.4,1900.5,1900.9,1900.4,1893.5,1891.7,1897.5,1896.2,1893.8,1892,1882.8,1889.6,1890.4,1892.5,1894,1895.2,1889.5,1889,1887.7,1884.4,1881.6,1877.6,1875.2,1869.3,1871.5,1865.6,1860.2,1857,1847.6,1846,1845.8,1848,1848.7,1848.6,1849.2,1846.7,1851.5,1847.8,1842.4,1835.9,1819.8,1809.1,1799.5,1792.3,1784.2,1777.3,1769.5,1762.5,1758.5,1764.2,1762.7,1762,1748.7,1754.1,1752.8,1752.2,1749.3,1744.4,1739,1731.9,1724,1719.2,1710.2,1699.6,1684.4,1679.2,1667.5,1651.6,1641.5,1641.3,1627.1,1624.7,1617.6,1612.2,1606.3,1594.2,1594,1587,1580.6,1574.3,1560.1,1559,1551.3,1542.9,1535.2,1529.7,1521.5,1508.4,1499.9,1490.7,1481.1,1471.7,1461,1449.9,1438.1,1431.3,1419.8,1407.5,1394.7,1378.9,1367.4,1356.6,1346.6,1337.2,1326.3,1319.6,1308.9,1300.3,1297.1,1290.6,1283,1270.9,1262.6,1254.1,1244,1233.7,1223,1210.4,1198,1184.6,1172.6,1164.3,1147,1131.4,1123.4,1112.9,1103.2,1093.2,1083.2,1074.5,1064.7,1056,1047.7,1039.9,1032.8,1021.4,1013.7,1006,998.87,992.54,984.14,980.67,973.1,964.12,955.67,945.73,935.86,921.23,910.47,899.92,889.19,879.06,869.79,862.1,853.75,849.99,842.29,835.47,824.18,816.73,809.07,801.86,794.38,788.68,780.81,774.62,768.48,761.92,756.91,753.93,746.59,741.44,735.3,729.37,723.81,717.8,711.17,704.21,696.59,689.52,682.91,677.54,667.98,661.21,653.91,646.93,640.57,633.44,627.18,620.46,614.27,607.99,601.69,595.13,588.65,582.64,574.53,570.36,563.26,557.24,553.91,548.93,544.24,539.3,534.44,529.65,524.62,518.64,513.66,507.67,502.54,496.83,491.28,484.85,478.57,471.5,465.42,458.41,451.8,444.98,438.19,431.76,425.71,419.46,413.57,407.8,401.85,396.17,390.95,385.29,380.05,374.91,369.76,365.06,360.68,356.2,352.29,347.92,344,340.17,336.85,333.11,329.17,325.39,320.86,317.27,313.15,308.52,304.44,300.17,295.54,291.08,286.48,281.4,276.76,271.71,266.63,262.16,257.88,253.76,249.72,245.52,241.47,237.74,233.85,230.02,226.46,222.78,219.03,215.45,211.71,208.09,204.55,200.78,196.85,193.1,189.49,186.02,182.42,178.82,175.12,171.6,168.03,164.33,160.68,157.23,153.97,150.56,147.23,143.84,140.93,137.7,134.6,131.58,128.82,125.71,122.98,119.96,117.38,114.83,112.19,109.64,107.28,104.78,102.54,100.32,97.933,95.808,93.551,91.135,89.039,86.795,84.552,82.501,80.497,78.635,77.047,75.818
1.0591,1.1504,1.2597,1.3341,1.3602,1.4096,1.4326,1.5481,1.6421,1.6606,1.7549,1.7708,1.8113,1.9392,1.9653,2.0096,2.1069,2.0592,2.1282,2.1943,2.2406,2.2172,2.3031,2.3248,2.3989,2.4425,2.4974,2.5599,2.6383,2.652,2.6855,2.7796,2.8509,2.9017,2.9384,2.983,3.0995,3.1274,3.1181,3.3069,3.3908,3.4927,3.6906,3.8726,4.1158,4.4941,4.9341,5.5453,6.272,7.1937,8.469,9.9245,11.644,13.795,16.359,19.496,22.641,26.083,29.64,33.087,36.546,40.432,44.503,48.567,52.078,56.411,61.097,65.41,69.454,73.536,77.741,82.003,86.269,90.622,94.688,99.055,103.07,107.75,112.2,117.16,122.16,127.47,132.9,137.92,143.64,148.97,154.34,160.13,166.06,172.09,178.52,184.92,191.91,198.2,204.76,211.85,218.37,226.32,234.08,239.9,247.14,254.57,261.81,269.43,277.52,285.63,294.09,302.77,312.18,321.18,330.48,338.1,346.43,355.21,364.29,374.22,384.53,395.25,405.7,417.96,428.23,438.96,449.13,457.36,467.72,477.9,488.83,500.73,513.14,525.5,538.97,548.96,558.72,568.47,578.71,586.74,598.06,609.26,621.06,632.86,643.27,654.29,664.22,674.34,684.94,698.05,708.22,716.17,726.74,737.66,749.51,761.53,773.31,785.79,797.05,807.65,818.19,828.98,843,848.81,861.74,879.07,893.65,908.21,922.41,932.66,947.3,957.47,966.91,976,985.08,992.43,1003.8,1015.4,1027.4,1041.1,1051.7,1062.2,1071.4,1079.6,1087.7,1099.8,1107.3,1109.4,1116.1,1123.1,1131.4,1138.6,1146.4,1154.1,1161,1168.3,1176.7,1183.7,1191.8,1192.8,1198,1208.2,1214.2,1220.4,1223.9,1237.9,1248.3,1259,1270.3,1280.8,1290.3,1294.3,1300.9,1307.7,1315,1322.3,1332.7,1345,1357.9,1379.3,1398,1416,1434.2,1445.5,1460.6,1475.3,1489.8,1503.3,1518.5,1532.7,1547.3,1563.6,1581.6,1605.4,1615.2,1629.5,1640.4,1650.6,1661.8,1671.4,1680.2,1690.2,1697.9,1705.8,1713.3,1717.3,1715.8,1718.5,1722.2,1725.7,1730,1734.8,1741.2,1753.3,1760.7,1771.5,1784.4,1795.8,1800.4,1807.4,1811,1812.5,1813.2,1810.7,1808.2,1806.8,1812.9,1815.4,1820.4,1825.4,1825.6,1833.5,1841.7,1850,1856,1861.9,1864.2,1862.4,1856.7,1851.8,1852.8,1847.9,1840.2,1839.9,1840.8,1845.8,1850.7,1855.4,1858.3,1860.9,1862.9,1866.7,1875.6,1869.5,1869.9,1867,1864.2,1863.8,1861.4,1860.4,1858.6,1856.3,1855.8,1858.6,1858.8,1858.5,1851.4,1849.3,1855.5,1854.4,1851.7,1849.7,1841.2,1847.6,1849.4,1851.2,1852.8,1854.1,1848,1848.1,1846.7,1842.8,1840.7,1836.4,1833.8,1828.3,1830.1,1825.1,1819.1,1816.8,1808.2,1806.2,1806.2,1808.1,1808.5,1809.1,1809.3,1806.6,1811.5,1807.8,1802.4,1795.5,1780.2,1770.3,1760.3,1753.5,1745.1,1738.5,1731.6,1724.2,1720.1,1726.1,1724.7,1724.2,1710.8,1715.9,1715,1714.2,1711.7,1706.8,1701.6,1694.3,1686.8,1682.3,1673.4,1663.2,1648.2,1643.2,1631.7,1616.1,1606.4,1605.8,1591.7,1589.5,1582.1,1576.9,1571,1559.1,1559.1,1552.4,1546,1539.6,1525.9,1524.7,1517.1,1508.9,1501.7,1496.5,1488.2,1475.2,1466.9,1458.4,1448.5,1439.5,1429.2,1418.3,1407,1399.7,1388.6,1376.1,1363.7,1348.6,1337.3,1326.5,1317,1308,1297.9,1290.4,1280.2,1272.3,1269.8,1263.2,1255.7,1243.2,1235.4,1227.2,1217.1,1207.1,1196.3,1184.8,1172.7,1159.2,1147.7,1139.5,1122.7,1107.5,1099.8,1089.1,1079.7,1069.9,1059.9,1051.1,1041.6,1033,1024,1016.8,1009.8,998.68,991.44,983.79,977.32,970.54,962.85,959.56,952.15,943.3,935.09,925.01,915.38,900.53,889.91,879.79,869.34,859.56,850.44,843.17,835.06,831.65,823.64,817.22,806.22,799.29,791.65,784.44,777.35,771.73,764.7,758.08,752.07,746.05,740.88,737.64,730.57,725.27,719.78,713.78,708.07,702.33,695.84,689.18,681.63,674.5,668.16,662.94,653.68,646.82,639.66,633.2,626.89,619.92,613.86,607.17,601.04,594.79,588.74,582.09,576.18,570.15,562.01,557.87,550.9,545.26,541.8,537.07,532.05,527.25,522.13,517.18,512.4,506.56,501.74,496,491.18,485.6,479.79,473.67,467.73,460.87,455.04,447.97,441.42,435.13,428.58,422.25,416.41,410.23,404.29,398.78,393.14,387.25,382.23,376.61,371.39,366.49,361.39,356.71,352.41,348.26,344.21,340.48,336.5,332.75,329.44,325.57,321.84,318.28,314.03,310.2,306.22,301.83,297.8,293.38,288.86,284.69,280.17,275.46,270.71,265.71,260.87,256.84,252.49,248.3,244.23,240.49,236.39,232.65,228.85,225.24,221.49,217.96,214.33,210.91,207.23,203.59,200.13,196.49,192.46,189.03,185.37,181.86,178.44,174.9,171.33,167.76,164.31,160.69,157.12,153.83,150.57,147.25,143.99,140.98,137.81,134.66,131.66,128.64,125.9,122.86,120.16,117.47,114.85,112.19,109.79,107.26,104.85,102.51,100.2,97.93,95.667,93.662,91.381,89.244,86.859,84.899,82.871,80.597,78.765,77.034,75.499,74.128
1.0598,1.1571,1.2493,1.361,1.3674,1.4801,1.481,1.5993,1.6449,1.6714,1.7545,1.8808,1.8691,1.9212,1.9988,2.0595,2.0451,2.1337,2.2042,2.154,2.2869,2.3334,2.3056,2.3349,2.4167,2.4581,2.5124,2.555,2.6582,2.6815,2.7044,2.7195,2.8527,2.9144,2.9673,3.0347,3.0672,3.1211,3.2279,3.3694,3.3792,3.5481,3.7141,3.9528,4.1356,4.5242,5,5.6385,6.3583,7.3644,8.6988,10.107,11.967,14.291,16.974,20.048,23.551,26.849,30.51,34.037,37.601,41.531,45.833,49.942,53.619,58.051,62.862,67.253,71.357,75.233,79.713,84.063,88.234,92.665,97.046,101.44,105.48,109.89,114.81,119.94,124.99,130.41,135.84,141.02,146.64,152.04,157.71,163.68,169.47,175.8,182.16,188.99,195.98,202.6,209.09,216.16,222.66,231.01,238.58,244.63,251.71,259.74,267.01,274.96,283.13,291.17,299.89,308.94,318.42,327.6,337.13,344.52,353.11,362.21,371.82,381.89,392.45,403.04,413.38,425.86,436.38,447.29,457.74,466.43,476.25,486.79,498.22,510.16,523.25,535.48,549.02,559,569.18,578.8,588.99,597.24,608.6,619.62,631.73,643.48,654.37,665.07,675.5,685.85,696.2,709.62,719.97,727.77,738.28,749.12,761.53,773.57,785.08,797.65,809.13,820.28,830.93,841.71,855.84,862.05,874.99,892.63,907.63,922.15,936.5,946.96,962.06,972.11,981.36,990.69,999.84,1006.9,1018.3,1030,1042.2,1056.7,1067.6,1077.8,1086.8,1095.1,1103.7,1115.9,1123.6,1125.4,1132.3,1139.4,1147.5,1155,1162.2,1169.8,1176.9,1184.7,1192.7,1200.2,1208,1209.2,1214.1,1225.1,1231,1237.4,1240.8,1255,1265.1,1275.8,1286.9,1297.9,1307.5,1311.5,1318.5,1325.3,1333,1340.7,1350.9,1363.4,1376.3,1397.4,1416.3,1434.3,1452.4,1464.1,1479.2,1494.5,1508.9,1523.1,1538.3,1552.5,1567.6,1583.7,1602,1625.6,1635.8,1650.5,1661.1,1671.9,1682.7,1692.9,1701.3,1711.4,1719.5,1726.9,1735,1739.4,1737.9,1740.7,1744.2,1747.6,1751.9,1756.5,1762.7,1775.5,1783.3,1794.1,1805.9,1818.1,1822.8,1830.1,1833.9,1835.9,1836.3,1833.3,1831.2,1829.7,1835.9,1838.6,1843.4,1848.6,1848.6,1856,1864.7,1873.5,1879.7,1885.3,1887.9,1886.7,1880.4,1875.8,1876.9,1872.1,1863.9,1863.7,1864.6,1869.8,1874.5,1878.9,1882,1884.8,1886.7,1890,1899.7,1893.4,1894.2,1891.3,1888.7,1887.7,1885.3,1884.4,1883,1879.7,1880.1,1882,1882.5,1882.7,1875.1,1873.1,1879.1,1878.4,1875.1,1873.7,1865.2,1871.9,1872.9,1874.7,1876.4,1877.6,1871.5,1871.9,1870,1866.5,1864.7,1859.8,1857.2,1851.7,1853.7,1848.9,1843.1,1840,1829.6,1828.6,1827.9,1830.6,1831.3,1831.4,1832.4,1829.4,1834,1830.5,1825.7,1818.4,1802.5,1792.2,1782.9,1775.9,1767.9,1760.2,1753.5,1746,1742.4,1748.2,1746.7,1745.5,1732.5,1737.7,1736.7,1736,1733.9,1728.8,1723.7,1716.3,1708.5,1703.6,1694.4,1684.4,1668.5,1664.1,1651.9,1636.4,1627,1626.3,1612,1610.1,1602.7,1597.4,1591.6,1580.1,1579.8,1572.5,1565.5,1560.1,1546,1544.6,1536.8,1528.5,1521.4,1515.4,1507.7,1494.5,1485.8,1477.2,1466.9,1458.5,1447.7,1436.8,1425.3,1418.3,1407.2,1394.9,1382.1,1366.5,1354.6,1344.5,1334.7,1325.8,1315.1,1307.9,1297.5,1289.3,1286.3,1280.5,1272.3,1260,1251.6,1243.1,1233.3,1223.3,1212.2,1200.2,1188.2,1174.3,1162.8,1154.8,1137.3,1122,1114.5,1103.4,1094.1,1084.2,1074.6,1065.5,1056,1046.7,1038.2,1030.9,1023.6,1012.2,1004.9,997.28,990.47,983.47,975.63,972.56,964.66,956.13,947.91,937.68,927.96,912.92,902.67,892.53,881.75,871.58,862.12,854.78,846.41,842.96,835.34,828.45,817.16,810.24,802.31,795.06,787.95,782.15,774.87,768.54,762,756,750.71,747.36,740.44,735.13,729.18,723.13,717.72,711.91,704.98,698.76,690.89,683.76,677.22,672.07,662.71,655.57,648.54,641.72,635.47,628.43,622.32,615.46,609.06,602.94,596.86,590.3,583.81,577.84,569.84,565.73,558.71,552.81,549.38,544.43,539.7,534.54,529.88,524.79,519.87,513.95,508.74,503.05,497.67,492.16,486.42,480.41,474.07,467.08,461.23,454.23,447.23,440.82,434.26,427.8,421.99,415.57,409.9,404.01,398.12,392.25,387.19,381.65,376.33,371.46,366.33,361.43,357.19,352.89,348.88,344.87,340.81,337.13,333.65,329.99,325.91,322.53,318.25,314.19,310.18,305.73,301.77,297.33,292.78,288.46,283.96,279.05,274.32,269.39,264.4,260.18,255.65,251.5,247.61,243.56,239.39,235.71,231.77,228.08,224.61,220.87,217.21,213.52,209.92,206.17,202.68,198.88,195.09,191.53,187.77,184.35,180.79,177.17,173.76,169.88,166.55,162.88,159.36,155.91,152.47,149.29,145.95,142.71,139.68,136.48,133.49,130.52,127.54,124.77,121.77,119.17,116.37,113.61,111.18,108.83,106.3,104.01,101.55,99.307,97.172,94.875,92.65,90.517,88.301,86.051,83.89,81.913,79.984,78.042,76.416,75.136
1.0929,1.201,1.2792,1.3817,1.4124,1.4569,1.5022,1.6207,1.6381,1.694,1.7955,1.8649,1.9263,1.9056,2.0264,2.0024,2.1328,2.1474,2.1774,2.2297,2.2669,2.3021,2.3383,2.3703,2.4062,2.5151,2.5503,2.5732,2.6833,2.6862,2.791,2.8032,2.8675,2.9785,2.9809,3.0779,3.1338,3.1942,3.2555,3.3819,3.4526,3.5769,3.7848,4.0317,4.2913,4.6485,5.0817,5.6922,6.5488,7.5627,9.0059,10.373,12.161,14.617,17.445,20.593,23.854,27.436,30.978,34.636,38.367,42.37,46.553,51.101,54.791,59.136,64.174,68.443,72.715,76.628,81.021,85.45,89.682,94.445,98.657,103.14,107.17,111.92,116.72,121.94,127.12,132.67,138.14,143.46,149.05,154.51,160.1,166.41,172.26,178.43,185.23,192.09,198.95,205.91,212.59,219.59,226.09,234.52,242.29,248.08,255.55,263.44,270.94,279.08,287.17,295.6,304.35,313.67,323.17,332.35,341.92,349.55,358.31,367.59,377.41,387.83,398.21,408.9,419.07,431.77,442.53,453.96,464.53,473.05,483.11,493.57,505.24,517.62,530.83,543.08,556.57,566.76,576.66,586.84,596.86,605.39,616.71,627.94,639.68,651.39,662.54,673.48,684.45,694.21,705.14,718.53,728.91,736.72,747.39,758.38,770.53,782.76,794.32,806.95,818.85,829.8,840.38,851.57,866.07,871.87,885.39,903.23,918.07,933.07,947.01,957.35,972.54,982.63,992.16,1001,1010.4,1017.6,1029,1041,1053.3,1067.5,1078.5,1088.8,1097.6,1106.2,1114.5,1127.1,1134.5,1136.5,1142.8,1150.6,1158.5,1166,1173.2,1181.1,1188.1,1196.2,1204,1211.6,1219.5,1220.5,1226.1,1236.7,1242.5,1248.9,1252.4,1266.5,1276.9,1287.6,1298.9,1309.7,1319.3,1323.4,1330.4,1337,1345.2,1352.7,1363,1375.4,1388.7,1410.1,1428.8,1446.8,1465.4,1476.8,1492.7,1507.6,1522.5,1536.4,1551.8,1566.2,1581.2,1597.6,1615.7,1639.8,1649.7,1664.7,1675.5,1685.9,1696.9,1707.1,1715.8,1726.3,1733.9,1742.1,1749.5,1754,1752.3,1755.1,1758.7,1762.1,1766.7,1770.7,1777.6,1790.3,1798.1,1809,1820.9,1833,1837.7,1844.9,1848.8,1850.3,1851.2,1848.3,1846.1,1844.1,1850.7,1853.2,1858.5,1863.6,1863.5,1871,1879.5,1888.3,1894.8,1900.1,1902.9,1901.5,1895.1,1890.4,1891.8,1886.9,1878.7,1878.3,1879.4,1884.4,1889.3,1893.6,1896.8,1899.2,1901.1,1904.5,1915,1908.3,1908.8,1905.8,1902.9,1902.3,1900,1898.7,1897,1894.4,1894.1,1896.3,1896.8,1896.3,1889.1,1887,1893.4,1892.6,1889.5,1887.5,1878.9,1885.5,1886.7,1888.4,1890.4,1891.3,1885.7,1885.2,1884,1880.7,1878.1,1873.2,1870.3,1865.2,1867.3,1862.2,1856,1852.7,1842.4,1841.4,1840.7,1843.2,1843.7,1843.5,1845.1,1841.7,1846.7,1843.2,1837.7,1830.5,1814.8,1803.9,1794.9,1787.7,1780,1772.6,1765.2,1758.4,1753.5,1759.5,1757.7,1757.1,1743.8,1749.1,1747.6,1747.2,1744.8,1740.2,1734.8,1727.3,1719.7,1714.6,1705.2,1694.9,1679.3,1673.8,1662.7,1647,1637.6,1636.6,1622.3,1620.5,1612.8,1607.6,1601.3,1590,1590,1582.5,1576.2,1569.7,1556,1554.4,1546.9,1538.1,1530.6,1525.5,1517.5,1503.9,1495.7,1486.7,1476.5,1467.4,1456.8,1445.7,1434.1,1427.3,1416.2,1403.5,1390.6,1375,1363.4,1352.9,1343.3,1333.9,1322.9,1316.1,1305.3,1297.2,1294.1,1287.8,1280.1,1268.1,1259.9,1251.3,1241.4,1230.5,1219.7,1207.2,1195.5,1181.6,1169.5,1161.4,1144.2,1128.8,1121,1110,1100.6,1091.1,1081,1071.8,1062.1,1053.3,1044.6,1037,1029.7,1018.6,1010.7,1003.2,996.24,989.56,981.22,978.15,970.44,961.9,953.28,943.08,933.49,918.74,908.25,897.66,887.18,876.7,867.38,859.74,851.19,847.63,840.17,833.15,821.94,814.98,807.4,799.66,792.17,786.38,779.14,772.8,766.1,760.25,754.64,751.89,744.63,739.17,733.36,727.09,721.66,715.93,709.15,702.46,694.85,687.8,681.11,675.88,666.03,659.16,652.23,645.19,638.68,631.72,625.48,619.01,612.87,606.43,600.32,593.55,587.02,581.26,573.07,568.67,561.65,555.9,552.51,547.48,542.33,537.68,533.13,527.95,523.21,517.05,511.92,505.89,500.89,495.12,489.34,483.13,476.85,470,463.75,456.83,450.03,443.59,436.81,430.44,424.52,418.29,412.34,406.56,400.82,394.98,389.8,384.17,378.99,373.94,368.63,363.78,359.42,354.92,351.01,347.04,343.04,339.1,335.6,331.76,327.88,324.25,320.03,316.22,312.17,307.63,303.59,299.11,294.63,290.32,285.59,280.76,276.1,270.96,266,261.49,257.14,253.08,248.88,245.15,240.97,236.9,233.3,229.39,225.86,222.12,218.45,214.98,211.17,207.41,203.91,200.01,196.27,192.55,188.92,185.45,181.9,178.18,174.66,171,167.67,163.72,160.33,156.86,153.47,150.26,146.91,143.79,140.58,137.49,134.31,131.4,128.48,125.56,122.69,119.95,117.11,114.49,112.02,109.46,107,104.57,102.29,100.07,97.897,95.653,93.306,90.99,88.85,86.684,84.398,82.34,80.286,78.585,76.989,75.765
1.0365,1.1491,1.287,1.326,1.3959,1.4479,1.5239,1.5103,1.6428,1.6969,1.7411,1.8053,1.847,1.9363,1.9737,2.0401,2.0751,2.142,2.1759,2.1776,2.2763,2.3504,2.3003,2.458,2.3906,2.5708,2.549,2.5844,2.6134,2.6516,2.7281,2.7413,2.8688,2.9115,2.9704,3.0036,3.0511,3.2015,3.2235,3.3522,3.4515,3.5477,3.7368,3.9289,4.1586,4.5475,5.0617,5.6922,6.387,7.3965,8.7515,10.14,11.958,14.3,17.014,20.046,23.357,26.843,30.392,34.127,37.583,41.472,45.768,49.98,53.529,57.959,62.581,66.965,71.101,75.01,79.429,83.885,88.073,92.499,96.657,101.18,105.23,109.7,114.44,119.41,124.61,130.03,135.38,140.8,146.2,151.79,157.27,163.16,169.05,175.24,181.76,188.6,195.44,202.03,208.55,215.46,222.01,230.25,238.06,243.92,251.06,258.64,265.97,274,281.94,290.2,298.75,307.64,317.2,326.43,335.52,342.97,351.54,360.28,369.9,380.14,390.49,401.43,411.65,423.95,434.45,445.4,455.54,464.27,474.34,484.82,495.94,507.97,520.71,532.97,546.26,556.32,566.01,575.71,585.92,594.1,605.46,616.6,628.44,640.12,650.46,661.44,671.92,681.89,692.69,705.65,715.83,723.93,734.51,745.51,757.52,769.9,781.51,793.94,805.36,816.4,826.83,837.48,851.87,857.75,871.15,888.63,902.93,918.28,931.8,942.29,956.85,967.01,975.99,985.28,994.38,1001.7,1013.2,1024.6,1036.7,1050.4,1061.3,1071.7,1080.1,1088.6,1096.9,1109.1,1116.6,1118.3,1125.4,1132.4,1140,1148.1,1155.6,1163,1169.8,1178,1185.9,1193.3,1200.8,1202.6,1207.6,1218.4,1223.7,1229.9,1233.7,1248.2,1258.6,1269,1280,1291,1300.9,1304.6,1311.3,1318.3,1326,1333.3,1343.6,1355.9,1369.6,1391,1410,1427.5,1446.1,1457.3,1472.7,1487.3,1501.7,1515.5,1530.4,1544.9,1559.8,1576,1594.5,1618,1627.8,1642.6,1653.2,1664.3,1674.8,1684.4,1693.3,1703.4,1711,1718.8,1726.5,1730.9,1729.4,1732.1,1735.7,1739,1743.1,1748.2,1754.2,1766.9,1774.5,1785.3,1798.2,1809.9,1814.6,1821,1824.8,1826.6,1827,1824.2,1821.7,1820.1,1826.5,1829,1834.6,1839.4,1839.7,1847.1,1855.6,1864.1,1870.1,1875.8,1877.9,1876.1,1870.2,1865.4,1866.1,1861.6,1853,1852.8,1854.6,1859.3,1864.1,1868.6,1872.5,1874.5,1876.6,1880.4,1889.3,1883.6,1883.4,1880.2,1877.4,1877.3,1874.6,1873.3,1872.3,1869,1869.5,1872.2,1873,1872.7,1865.1,1863.4,1869.7,1868.4,1865.8,1863.7,1855.1,1861.6,1862.9,1864.7,1866.5,1867.9,1861.7,1861.9,1860.6,1856.7,1855.2,1850.3,1847.5,1841.9,1844.5,1838.9,1834,1830.5,1821.2,1820.5,1819.8,1821.6,1822.7,1823.2,1823.2,1820.7,1825.8,1821.4,1816.2,1809.4,1794,1784,1774.7,1767.2,1759.4,1752.5,1745.6,1737.9,1734.3,1740.3,1738.7,1738.6,1725,1730.5,1729.6,1729,1726.3,1721.6,1716.1,1709.1,1701.1,1696,1687.3,1677.4,1662.3,1656.2,1644.9,1629.7,1620.3,1619.3,1605.5,1603.3,1596.3,1590.6,1584.7,1573.5,1573.4,1566,1559.8,1554,1539.9,1538.6,1531.2,1522.4,1515.9,1510.2,1501.6,1488.7,1480.2,1471.2,1461.4,1452.6,1442.2,1431.2,1419.1,1412.6,1401.4,1389.1,1376.5,1360.6,1349.8,1338.8,1329,1319.8,1309.3,1302.3,1291.9,1283.5,1281.2,1274.4,1266.9,1254.2,1246.7,1237.8,1228.2,1218.1,1207.3,1194.8,1183.2,1169.5,1157.7,1149.6,1132.7,1117.3,1109.9,1098.9,1089.6,1079.7,1070,1061.3,1051.3,1042.7,1034.2,1026.8,1020,1008.3,1001.1,993.41,986.92,980.16,971.98,969.08,961.23,952.58,944.39,934.2,924.73,909.47,899.33,888.7,877.87,868.33,859.09,851.31,843.03,839.91,831.6,825.25,814.44,807.04,799.92,792.18,785.01,779.28,772.08,765.51,759.47,753.35,748.19,744.77,737.94,732.58,726.84,721.01,715.01,709.56,702.77,696.08,688.36,681.06,674.87,669.43,660.2,653.08,646.14,639.37,633.17,626.1,619.96,613.2,606.78,600.61,594.2,587.63,581.38,575.4,567.39,563.19,556.16,550.6,547.03,542.14,537.37,532.4,527.74,522.53,517.46,511.95,506.74,501.01,496.2,490.54,484.82,478.5,472.34,465.35,459.5,452.47,445.59,439.42,432.59,426.23,420.12,413.94,408.37,402.75,397.05,391.05,385.95,380.28,374.99,370.1,365.05,360.06,355.76,351.46,347.61,343.68,339.73,335.93,332.18,328.67,324.77,321.08,316.74,313.05,308.96,304.54,300.31,295.91,291.45,286.88,282.55,277.83,273.01,268.01,263.21,258.9,254.48,250.27,246.3,242.29,238.14,234.48,230.75,227.12,223.36,219.7,216.08,212.44,208.78,205.12,201.78,197.81,194,190.56,186.94,183.32,179.9,176.24,172.65,169.09,165.51,161.91,158.54,155.18,151.71,148.42,145.15,142.09,138.89,135.77,132.61,129.78,126.87,124.02,121.13,118.37,115.62,113.08,110.6,108.15,105.75,103.36,101.1,98.783,96.602,94.367,92.159,89.926,87.732,85.642,83.431,81.3,79.403,77.682,76.002,74.874
1.0912,1.2092,1.2724,1.3807,1.3903,1.4709,1.5318,1.5694,1.661,1.6997,1.7597,1.8306,1.909,1.9337,2.0154,2.0928,2.1239,2.1449,2.2137,2.2372,2.2985,2.3283,2.3702,2.3931,2.3951,2.5166,2.4741,2.5649,2.6037,2.6428,2.7053,2.7359,2.7969,2.8736,2.9052,3.0116,3.0421,3.0644,3.1884,3.254,3.4053,3.5223,3.6903,3.9285,4.194,4.5543,5.0255,5.5537,6.3617,7.2892,8.6926,10.066,11.915,14.246,17.012,20.096,23.388,26.892,30.525,34.053,37.578,41.633,45.66,49.878,53.596,57.915,62.857,67.18,71.323,75.22,79.641,83.809,88.18,92.605,96.925,101.33,105.4,109.87,114.69,119.68,124.93,130.09,135.57,141,146.35,151.9,157.45,163.32,169.28,175.41,182.1,188.87,195.46,201.97,208.59,215.64,222.18,230.38,238.26,243.9,251,258.6,266.22,273.87,282.12,290.28,298.86,307.79,317.08,326.07,335.29,343.02,351.33,360.32,369.91,379.85,390.3,401.01,411.37,423.66,434.35,444.89,455.12,463.62,473.71,484.27,495.21,507.41,519.73,531.92,545.28,555.23,565.06,574.54,584.6,592.92,603.79,615.21,627.08,638.47,649.11,659.73,670.05,679.96,690.48,703.44,713.6,721.51,731.97,742.91,755.14,767.42,778.97,791.3,802.15,813.11,823.48,834.44,848.45,854.18,867.76,885.11,899.23,914.03,927.94,937.78,952.16,962.36,971.32,980.37,989.46,996.76,1007.9,1019.5,1031.7,1045,1055.6,1065.5,1074.4,1082.6,1090.8,1103,1110,1112.1,1118.8,1125.8,1133.6,1141.4,1148.4,1156.3,1163,1170.8,1178.8,1186.1,1193.9,1195.3,1200.3,1211,1216.5,1222.5,1226.1,1240.6,1250.9,1261.8,1272.8,1283.1,1293.3,1296.7,1303.4,1309.8,1318,1325.3,1335.6,1347.8,1361.7,1383.2,1401.9,1419.5,1438,1449.1,1463.9,1478.6,1493.1,1506.8,1521.8,1535.8,1550.3,1566.6,1585.5,1608.2,1618,1632.6,1643.6,1654,1664.3,1674.1,1682.4,1692.6,1700.5,1708.3,1715.6,1720.1,1718.6,1721.4,1724.8,1728.1,1732.1,1737,1743.1,1755.8,1763.1,1774.3,1787.1,1798.4,1803,1809.8,1813.1,1814.8,1815,1812.2,1809.6,1808.4,1815.1,1817.5,1822.3,1827.2,1827.7,1835.2,1843.4,1852.1,1858.4,1863.5,1865.8,1863.7,1857.4,1852.4,1854.2,1849.2,1841.1,1840.6,1842.1,1847.2,1852.3,1856.7,1860.4,1862.5,1864.4,1867.6,1876.9,1871.2,1870.9,1867.8,1864.9,1864.3,1861.8,1860.6,1859.5,1856.8,1856.5,1859.5,1860.5,1860,1852.5,1851.1,1856.9,1855.4,1853.2,1851,1842.9,1848.9,1849.5,1852.2,1853.4,1855,1848.7,1849.3,1848.2,1844,1841.9,1838,1835.5,1829.4,1831.7,1826.4,1821.5,1818,1809.2,1808.1,1807.8,1809.5,1809.8,1811.1,1811.6,1808.5,1813.1,1809.1,1804,1797,1782.1,1771.6,1762.4,1755.3,1747.7,1740.8,1733.7,1726.1,1722.4,1728.7,1727.6,1726.8,1713.8,1719.1,1718,1717.2,1714.4,1709.8,1704.4,1697.9,1690.3,1684.9,1676.3,1666.3,1651,1645.2,1634.6,1618.9,1609.9,1608.5,1595.1,1592.8,1585.9,1580.3,1575,1562.7,1563.2,1555.6,1549.4,1543.4,1528.8,1528.4,1520.9,1512.2,1505.2,1500.1,1491.9,1478.7,1470.1,1461.5,1451.6,1442.9,1432,1421.1,1409.6,1403.2,1391.8,1379.6,1366.8,1351.8,1340.4,1329.8,1319.9,1311,1300.5,1293.2,1282.8,1274.4,1272.6,1265.8,1258.2,1245.7,1238,1229.2,1219.6,1210.1,1199,1186.6,1175.4,1161.8,1150.2,1142.2,1124.9,1109.3,1102,1091.5,1082,1072.5,1062.6,1054.3,1044.5,1035.7,1027.1,1019.8,1012.9,1001.7,994.24,986.69,980.62,973.69,965.43,962.74,954.67,946.16,937.25,927.97,918.28,903.26,892.69,882.63,872.13,862.53,853.1,845.83,837.18,834.24,826.44,819.79,808.65,801.43,794.35,787.14,779.74,773.88,766.98,760.63,754.57,748.51,743.23,740,733.01,727.68,722.17,716.35,710.48,704.89,698.12,691.54,683.84,676.67,670.39,664.89,655.92,649.1,642.04,634.96,629.06,621.91,615.84,609.18,602.88,596.74,590.55,583.78,577.86,571.82,563.87,559.82,552.64,546.71,543.62,538.49,533.73,528.82,523.92,518.9,514.19,508.06,503.33,497.41,492.52,487.2,481.64,475.4,469.15,462.26,456.31,449.25,442.89,436.47,429.97,423.5,417.34,411.17,405.76,399.97,394.14,388.24,383.12,377.53,372.16,367.32,362.37,357.82,353.54,349.28,345.21,341.31,337.43,333.6,330.38,326.4,322.58,319.13,314.84,310.94,306.94,302.65,298.53,294.02,289.77,285.28,280.68,275.88,271.38,266.53,261.48,257.08,252.93,248.62,244.73,240.78,236.68,233.16,229.39,225.41,221.96,218.34,214.7,211.19,207.46,203.91,200.38,196.58,192.77,189.14,185.68,182.16,178.73,175.15,171.63,168.05,164.54,160.95,157.55,154.08,150.64,147.61,144.13,141.07,137.88,134.85,131.78,128.96,126.05,123.06,120.45,117.6,114.86,112.37,109.86,107.29,104.99,102.62,100.29,98.216,95.871,93.775,91.549,89.342,87.118,84.947,82.827,80.683,78.736,76.978,75.47,74.218
1.0808,1.166,1.2772,1.3115,1.3605,1.416,1.5253,1.5242,1.6155,1.6955,1.7601,1.843,1.8742,1.9343,1.9894,2.038,2.1038,2.1374,2.1935,2.233,2.3189,2.3074,2.3417,2.4426,2.3937,2.562,2.5478,2.5462,2.6268,2.688,2.6958,2.7629,2.836,2.8321,2.9185,2.992,3.0733,3.1375,3.2344,3.2976,3.3478,3.5327,3.7308,3.9406,4.25,4.5792,5.0272,5.6035,6.4533,7.3814,8.8045,10.2,12.115,14.383,17.111,20.228,23.507,26.987,30.56,34.2,37.837,41.791,45.866,50.221,53.787,58.119,62.869,67.241,71.49,75.559,79.813,83.989,88.437,92.92,97.049,101.56,105.67,109.99,114.96,119.9,125.12,130.45,135.94,141.16,146.61,151.94,157.77,163.63,169.54,175.72,182.38,189.22,195.96,202.51,209.09,216.22,222.54,230.82,238.63,244.54,251.76,259.43,266.84,274.64,282.81,291.07,299.67,308.65,318.15,327.18,336.41,344.03,352.41,361.47,371.24,381.4,391.56,402.5,412.84,425.06,435.76,446.51,457,465.82,475.83,486.05,497.51,509.55,522.19,534.61,547.73,557.58,567.55,577.28,587.25,595.6,607.12,618.3,630.25,641.69,652.2,663.34,673.73,683.58,694.19,707.29,717.78,725.58,736.17,747,759.29,771.7,783.22,795.97,807.25,818.06,828.44,839.29,853.63,859.81,873.07,890.36,905.26,920,934.21,944.04,959.2,969.03,978.31,987.03,996.65,1004.3,1015.2,1027,1038.8,1053,1064.1,1073.9,1082.9,1091,1099.5,1111.8,1119.3,1121.1,1127.9,1135,1142.9,1150.9,1158.1,1165.8,1172.5,1180.4,1188.6,1195.8,1203.4,1204.9,1210.5,1221.1,1226.8,1233.1,1236.3,1250.9,1261.5,1272,1283,1294,1303.7,1307.5,1314.6,1321,1328.7,1336.1,1346.4,1359,1372.7,1394,1412.9,1430.7,1448.8,1460.3,1475.5,1490.2,1504.5,1518.4,1533.3,1548,1562.5,1579,1597.3,1620.6,1630.3,1644.9,1655.8,1666.9,1677.6,1687,1695.7,1705.8,1713.7,1721.5,1729.2,1733.7,1732.1,1734.6,1738,1741.7,1745.7,1751,1756.7,1769.6,1777.4,1788,1801.2,1812.4,1817.1,1824.1,1827.4,1829.3,1829.5,1826.9,1824.2,1823,1829.1,1831.2,1837,1841.8,1842.5,1849.9,1857.9,1866.3,1872.9,1877.8,1880.3,1878.9,1873.1,1867.6,1869.2,1864.5,1856.1,1855.6,1856.4,1861.7,1866.9,1871.2,1875.5,1877.1,1879.3,1882.9,1892.4,1886.2,1886.1,1883.3,1880.5,1879.7,1877.5,1876.2,1874.7,1872.4,1872.5,1875.2,1875.7,1875.8,1868.1,1866,1872.3,1871.2,1868.4,1866.9,1857.6,1864.5,1865.5,1867.4,1869.4,1870.5,1864.7,1864.9,1863.2,1859.8,1857.1,1852.4,1850.4,1844.7,1846.8,1841.7,1836.4,1833.4,1823.8,1822.7,1822.2,1824.5,1824.8,1825.4,1825.5,1823.1,1828,1823.5,1819,1811.9,1796.6,1786.2,1776.5,1769.4,1761.4,1755.4,1747.6,1740.1,1736.4,1742,1740.6,1739.9,1726.8,1732.2,1730.9,1730.5,1728.3,1723.1,1717.6,1710.6,1702.7,1697.5,1688.7,1678.4,1663.6,1657.8,1646.9,1631.2,1621.9,1620.8,1606.8,1604.9,1597.8,1592,1586.4,1574.4,1575,1567.5,1561.2,1555.1,1541.3,1539.8,1532,1523.8,1516.7,1511.2,1502.9,1489.6,1481.2,1472.5,1462.3,1453.6,1443.1,1432.3,1420.2,1413.3,1402.6,1390,1377.4,1362,1350.6,1339.9,1330.2,1320.8,1310.9,1303.5,1293,1284.2,1282.2,1275.4,1267.9,1255.8,1247.8,1239,1229.1,1219.4,1208.1,1196.1,1184.1,1170.6,1158.7,1150.9,1133.6,1117.7,1110.3,1099.8,1090.4,1080.9,1070.6,1062,1052.1,1043.7,1034.7,1027.7,1020.4,1008.9,1001.6,993.99,987.3,980.89,972.62,969.51,962.01,953.05,944.69,934.68,925.48,909.99,899.7,889.13,878.52,868.92,859.61,851.99,843.73,840.05,832.34,826,814.65,807.59,799.98,792.34,785.72,779.69,772.53,765.73,759.65,753.68,748.53,745.21,738.28,732.76,727.04,721.25,715.56,709.86,702.86,696.49,688.86,681.41,675.23,669.95,660.52,653.26,646.34,639.77,633.13,626.11,619.91,613.4,607.44,600.9,594.94,587.98,581.77,575.71,567.72,563.62,556.33,550.62,547.44,542.5,537.82,532.44,527.67,522.72,517.94,512.05,506.96,500.9,496.01,490.56,484.76,478.41,472.36,465.45,459.46,452.24,445.68,439.37,432.49,426.31,420.21,414.02,408.25,402.49,396.82,390.83,386.03,380.21,374.89,370,365.1,360.22,355.78,351.46,347.37,343.48,339.63,335.86,332.38,328.68,324.83,321.12,316.81,312.87,308.86,304.45,300.32,295.95,291.6,286.95,282.69,277.79,273.1,267.98,263.18,258.94,254.61,250.29,246.34,242.38,238.34,234.6,230.7,226.89,223.3,219.66,216.13,212.61,208.87,205.2,201.69,197.91,194,190.52,186.83,183.37,179.92,176.3,172.77,169.19,165.62,161.97,158.4,155.08,151.53,148.5,145.06,141.99,138.76,135.7,132.5,129.7,126.79,123.85,121.15,118.26,115.56,112.95,110.56,107.97,105.55,103.19,100.97,98.817,96.425,94.338,92.231,89.934,87.688,85.586,83.421,81.221,79.381,77.611,75.954,74.695
1.0344,1.1601,1.2012,1.2956,1.3906,1.4212,1.5139,1.5354,1.6419,1.6648,1.7005,1.8242,1.8756,1.894,2.0056,2.0045,2.0928,2.1238,2.2488,2.2493,2.2965,2.311,2.3678,2.4562,2.4308,2.5245,2.4928,2.5542,2.5758,2.6281,2.6437,2.6906,2.7668,2.8278,2.8673,2.9622,3.0035,3.0884,3.1888,3.2871,3.3642,3.5029,3.6869,3.9319,4.1878,4.4708,4.9127,5.5414,6.2921,7.2093,8.615,9.9953,11.735,14.037,16.765,19.69,22.954,26.348,29.915,33.387,37.007,40.85,44.892,49.098,52.744,57.038,61.743,66.016,70.158,73.825,78.355,82.539,86.743,91.12,95.187,99.61,103.64,108.21,112.72,117.66,122.69,127.88,133.29,138.6,144.15,149.5,154.83,160.76,166.51,172.65,179.07,185.69,192.34,198.76,205.3,212.33,218.9,226.89,234.56,240.32,247.58,254.89,262.23,269.8,278.05,286.13,294.41,303.23,312.25,321.46,330.58,338.22,346.58,355.25,364.55,374.5,384.68,395.46,405.7,418.14,428.3,438.85,449.18,457.28,467.61,478.03,489.02,500.85,513,525.43,538.59,548.59,558.41,567.95,577.78,586.17,597.33,608.47,620.2,631.8,642.16,652.97,663.29,673.03,683.66,696.81,706.93,714.58,725.42,736.25,748.52,760.97,772.28,784.72,795.88,806.71,817.32,827.88,842.08,848.19,861.1,878.61,893.1,907.95,921.79,931.9,946.77,956.54,966.22,975.25,984.14,992.02,1003.2,1014.7,1026.6,1040.1,1051,1061.3,1070.2,1078.5,1086.9,1098.9,1106.4,1107.9,1114.7,1122.2,1130.4,1138.1,1145.2,1152.7,1159.9,1167.2,1175.2,1182.9,1190.7,1191.8,1196.9,1207.7,1213,1219.1,1222.9,1236.7,1247.4,1258.1,1269.1,1279.9,1289.6,1293.2,1300.3,1306.7,1314.6,1321.7,1332.1,1344.2,1357.6,1378.7,1397.6,1414.9,1433.4,1444.7,1460.2,1474.4,1488.7,1502.7,1517.2,1531.9,1546.3,1562.4,1580.6,1604.2,1613.9,1628.3,1639.3,1649.8,1660.6,1670,1678.7,1689,1696.6,1704.5,1712.1,1716.7,1714.7,1717.7,1721.2,1724.8,1728.7,1733.5,1739.3,1751.9,1759.9,1770.3,1783.4,1794.6,1799.3,1806.1,1809.5,1811.4,1812.1,1809.5,1806.7,1805.8,1812,1814.4,1819.9,1824.6,1825.1,1832.9,1840.5,1848.9,1855.4,1861.1,1863.3,1861.9,1855.3,1850.6,1851.9,1847.3,1839.3,1838.9,1840,1844.6,1850,1854.4,1858,1859.9,1862.3,1865.6,1875,1869.5,1869,1866.6,1863.2,1863.3,1860.7,1859.7,1858,1855.4,1856,1858.3,1858.9,1858.5,1851.1,1849.5,1855.4,1854.6,1851.5,1850,1841.3,1848.1,1849.4,1851,1852.7,1853.9,1848.4,1848.6,1847.1,1843.6,1841.1,1836.8,1834.8,1829.1,1830.9,1825.9,1820.7,1817.7,1808.7,1807.5,1807.1,1809.5,1809.9,1809.9,1810.7,1807.9,1812.8,1808.5,1803.3,1796.8,1781.5,1771.3,1762.3,1755.3,1746.6,1740.3,1733.2,1726,1721.8,1728.2,1726.6,1726.1,1712.8,1718.3,1716.9,1716.8,1714.1,1709.4,1703.9,1696.7,1689.2,1684.1,1675.3,1665.4,1650.2,1645.2,1633.9,1618.6,1609.2,1607.9,1593.8,1592,1585.1,1579.8,1573.6,1561.7,1562.4,1554.9,1548.7,1542.6,1528.7,1527.6,1519.8,1511.5,1505,1499.6,1491.1,1477.9,1469.6,1461,1451.4,1442.6,1431.6,1420.9,1409.2,1402.7,1391.6,1379,1366.3,1351.6,1340.2,1329.3,1320.1,1311,1300.2,1293.5,1283.1,1274.7,1272.8,1266,1258.7,1246.1,1238.2,1229.6,1220,1210.1,1199,1187.4,1175.3,1162,1150.5,1142.3,1125.3,1109.9,1102.2,1091.7,1082.4,1072.7,1062.7,1053.9,1043.8,1035.7,1026.8,1019.8,1012.6,1001.6,994.1,986.77,980.36,973.52,965.64,962.45,954.79,946.18,937.58,927.87,918.23,903.38,892.96,882.36,872.02,862.1,853.12,845.75,837.61,834.09,826.35,819.92,808.84,801.57,793.92,786.91,779.79,773.94,766.87,760.24,754.33,748.09,743.25,739.8,732.76,727.77,722.25,715.95,710.45,704.68,698.15,691.12,683.84,676.65,670.38,664.91,655.63,648.8,641.85,634.86,628.84,621.86,615.48,608.9,602.96,596.47,590.52,583.82,577.6,571.81,563.97,559.74,552.37,546.91,543.21,538.53,533.45,528.45,523.83,518.59,513.69,508.13,503.02,497.5,492.28,486.99,481.22,474.92,468.73,461.84,455.95,449.03,442.34,436,429.43,423.22,417.34,410.85,405.16,399.56,393.82,387.91,382.71,377.31,371.68,366.85,362.04,357.39,353.09,348.76,344.82,340.85,336.98,333.15,329.67,325.97,322.31,318.66,314.45,310.52,306.46,302.31,298.14,293.91,289.38,284.86,280.44,275.76,271.17,266.04,261.33,257.03,252.77,248.51,244.61,240.79,236.62,232.95,229.13,225.4,221.84,218.22,214.53,210.95,207.29,203.84,200.03,196.45,192.61,188.89,185.5,181.91,178.5,175.04,171.43,167.79,164.3,160.83,157.24,154.01,150.51,147.35,143.96,140.86,137.73,134.79,131.49,128.7,125.91,123.09,120.22,117.41,114.77,112.18,109.73,107.19,104.79,102.45,100.24,98.13,95.757,93.588,91.388,89.085,87.036,84.892,82.808,80.728,78.758,76.988,75.313,74.112
1.0927,1.2112,1.2783,1.3749,1.4463,1.4901,1.559,1.5654,1.6533,1.7055,1.7758,1.8505,1.9214,1.9842,2.0165,2.0658,2.1475,2.1374,2.1993,2.2856,2.3792,2.3411,2.3968,2.4345,2.5006,2.5397,2.5039,2.5919,2.62,2.6257,2.6592,2.76,2.8168,2.9125,2.961,2.9469,3.0317,3.1091,3.2035,3.318,3.417,3.5238,3.7241,3.9644,4.2001,4.5951,5.0304,5.5619,6.3692,7.4147,8.697,10.132,12.021,14.247,17.03,20.036,23.443,26.743,30.452,34,37.509,41.579,45.621,49.883,53.54,57.806,62.699,66.796,71.169,74.975,79.393,83.652,88.05,92.502,96.661,101.08,105.06,109.46,114.22,119.35,124.46,129.76,135.09,140.4,145.95,151.25,157.02,162.95,168.86,174.95,181.45,188.25,195.01,201.47,208.22,215.25,221.74,229.7,237.51,243.28,250.51,258.12,265.59,273.43,281.57,289.68,298.31,307.07,316.56,325.49,334.85,342.31,350.67,359.68,369.41,379.29,389.53,400.32,410.88,423.08,433.71,444.26,454.59,463.23,473.35,483.86,495.03,507.07,519.36,531.73,545.12,555.02,564.91,574.49,584.6,593.01,604.13,615.67,627.23,638.71,649.5,660.36,670.67,680.48,691.11,704.37,714.72,722.53,733.37,743.97,756.15,768.86,780.06,792.57,803.86,815.14,825.48,836.29,850.76,856.66,869.93,887.65,902.02,916.85,930.85,940.95,955.64,965.82,975.13,984.2,993.56,1000.8,1012.2,1023.9,1035.8,1049.8,1060.7,1070.9,1079.7,1088.1,1096.2,1108.5,1116.7,1118.1,1125,1132,1139.9,1147.8,1154.9,1162.7,1170.2,1177.4,1185.4,1193.1,1201,1202.4,1207.5,1218.2,1224,1229.9,1233.6,1248,1258.4,1268.9,1280,1291.1,1301,1304.6,1311.5,1318.2,1325.8,1333.7,1343.7,1356.3,1369.8,1391.4,1410.3,1428,1446.7,1457.6,1473,1487.8,1502.4,1516,1531,1545.9,1560.3,1576.5,1594.9,1618,1627.8,1643,1653.5,1664.3,1675,1684.6,1693.5,1703.6,1711.3,1719.4,1727.1,1731.5,1730,1732.5,1735.6,1739.7,1743.6,1748.7,1755,1767.5,1775.2,1786.3,1799.3,1810.2,1814.9,1821.5,1825,1827.1,1827.4,1824.7,1822.2,1820.9,1826.8,1829.9,1835.2,1840.1,1840.7,1848,1856.1,1864.8,1870.8,1876.6,1879.1,1877.3,1871,1865.9,1867,1862.4,1854.2,1853.6,1855.3,1860,1865.2,1869.4,1873.2,1875.2,1877.4,1881,1890.3,1884.9,1884.7,1881.7,1878.1,1878.6,1875.8,1874.4,1873.1,1870.8,1870.9,1873.5,1874.3,1874.1,1865.9,1864.8,1870.9,1869.5,1867.1,1865,1856.3,1863.2,1864.3,1865.7,1867.6,1869.2,1863.2,1862.8,1862.2,1858.4,1856.3,1851.6,1849.5,1843.6,1845.5,1840.5,1835.2,1832.3,1822.7,1821.9,1821.5,1823.5,1824,1824.4,1824.7,1821.7,1827.4,1822.9,1818.1,1811,1795.6,1785.1,1776.2,1768.9,1760.3,1754.2,1746.8,1739.6,1735.5,1741.9,1740.4,1739.7,1726.4,1732.2,1731,1730.1,1727.2,1722.7,1717.3,1710.1,1702.2,1697.5,1688.7,1678.3,1663.6,1657.9,1646.6,1631,1621.7,1620.1,1606.3,1604.5,1597.4,1592.2,1585.7,1574.3,1574.2,1567.1,1560.5,1554.7,1541,1539.6,1532.1,1523.7,1516.7,1511.2,1502.5,1489.5,1480.8,1472.5,1462.4,1453.6,1442.9,1432.1,1420.2,1413.5,1402.4,1390,1377.5,1361.7,1350.5,1339.6,1329.9,1320.8,1310.1,1303.1,1292.6,1284.5,1282,1275.3,1267.6,1255.1,1247.1,1238.8,1228.9,1218.9,1207.7,1195.9,1184.4,1170.4,1158.9,1150.8,1133.6,1118,1110.5,1099.7,1090.5,1080.7,1070.6,1061.9,1052.1,1043.7,1035,1027.5,1020.6,1009.2,1001.7,994.29,987.86,980.63,973.19,969.64,962.1,953.5,944.79,934.9,925.46,910.23,899.89,889.3,878.64,868.97,859.89,852.14,843.89,840.48,832.59,825.81,814.95,807.52,800.15,792.62,785.51,779.57,772.43,766,759.88,754.11,748.51,745.31,738.42,732.67,727.48,721.42,715.97,710.05,703.47,696.51,688.81,681.74,675.29,669.89,660.52,653.74,646.62,639.48,633.39,626.32,619.74,613.49,607.25,600.95,594.85,588.2,582.03,576.17,567.77,563.51,556.5,550.77,547.38,542.44,537.44,532.81,527.85,522.94,517.91,511.92,506.97,501.34,496.4,490.83,485.03,478.62,472.41,465.58,459.32,452.58,445.74,439.51,432.82,426.5,420.18,414.06,408.26,402.69,396.79,391.02,386.13,380.3,374.7,370.01,364.72,360.22,355.78,351.38,347.4,343.55,339.31,335.68,332.35,328.65,324.72,320.95,316.93,312.94,308.83,304.37,300.33,295.87,291.49,287.09,282.62,277.85,273.18,268.12,263.21,258.74,254.45,250.06,246.25,242.41,238.23,234.54,230.74,227.06,223.23,219.83,216.11,212.59,208.86,205.2,201.57,197.88,194.05,190.58,186.83,183.51,179.91,176.21,172.68,169.03,165.51,162.03,158.51,155.08,151.73,148.48,145.24,141.92,138.82,135.87,132.63,129.56,126.92,123.91,121.03,118.34,115.6,113.07,110.58,107.98,105.65,103.4,100.91,98.735,96.615,94.293,92.164,89.922,87.701,85.511,83.392,81.384,79.424,77.522,76.088,74.687
1.0174,1.139,1.254,1.2806,1.3714,1.4401,1.5012,1.5493,1.597,1.6487,1.751,1.7911,1.8272,1.8919,1.9888,1.9977,2.0649,2.1143,2.1265,2.2256,2.2656,2.2844,2.3603,2.3935,2.4548,2.495,2.4822,2.5253,2.5766,2.5548,2.6241,2.7012,2.7674,2.821,2.8576,2.8452,2.9618,3.0705,3.1728,3.2887,3.3585,3.4799,3.6841,3.8479,4.0937,4.4877,4.9186,5.4922,6.2016,7.1465,8.4435,9.8542,11.627,13.81,16.378,19.244,22.456,25.867,29.386,32.842,36.383,40.154,44.084,48.306,51.756,55.942,60.416,64.771,68.895,72.675,77.032,81.198,85.344,89.544,93.794,98.092,102,106.33,110.93,115.79,120.69,126,131.11,136.19,141.92,147.16,152.61,158.23,164.16,169.92,176.14,182.79,189.33,195.57,202.13,209.24,215.7,223.54,230.99,236.83,243.85,251.2,258.33,265.8,273.77,281.63,290.22,298.69,307.74,316.64,325.53,333.16,341.28,349.78,358.96,368.58,378.72,389.11,399.93,411.81,422.17,432.48,442.26,450.68,460.69,470.74,482.06,493.51,505.56,517.39,530.89,540.95,550.41,560.21,569.71,577.61,588.26,599.57,611.33,622.61,632.92,643.46,653.51,663.25,673.49,686.59,696.78,704.3,714.94,725.75,737.46,749.85,761.43,773.42,784.79,795.45,805.42,816.16,830.24,835.89,848.79,866.09,879.86,894.3,907.77,918.32,932.87,942.92,952.25,961.56,970.52,977.89,989.22,1000.4,1012.1,1025.7,1036.4,1046.4,1055.2,1063.7,1071.6,1083.9,1091.5,1093.3,1099.6,1107.4,1114.9,1122.5,1129.8,1137.4,1144.4,1152,1159.7,1167,1174.7,1176,1180.9,1191.2,1196.8,1202.9,1206.5,1220.1,1230.5,1241.5,1251.8,1262.7,1272.1,1276,1283,1289.4,1296.7,1303.9,1314.1,1325.5,1338.2,1359.6,1378.2,1395.3,1413.7,1424.6,1439.3,1454.4,1468.8,1482,1496.9,1511.1,1525.4,1541.1,1559.2,1583,1592.4,1607.4,1617.6,1628.1,1638.8,1647.9,1657.2,1667.1,1674.5,1682.5,1690,1694.1,1692.7,1695.2,1698.6,1702.3,1706.4,1711.6,1717.1,1729.6,1736.9,1747.8,1760,1771.4,1776.1,1783,1786.2,1788.3,1788.5,1786.5,1783.9,1782.3,1788.7,1791.4,1796.2,1801.3,1801.5,1808.5,1816.9,1825.6,1831.2,1837,1839.3,1838,1832,1827.1,1829,1823.7,1816,1815.5,1816.8,1821.5,1826,1830.7,1833.9,1836.3,1838.3,1841.5,1851.3,1845.2,1845.7,1842.8,1840.1,1839.9,1837.3,1835.9,1835,1832.2,1831.6,1834.9,1835.1,1835.4,1827.8,1826.1,1832.3,1830.9,1828.6,1827,1818.7,1825.1,1826.2,1828.2,1829.7,1831,1825.2,1825.7,1824.1,1820.7,1818.7,1814.6,1811.8,1806.4,1808.4,1803.2,1797.8,1795,1786.4,1785,1784.7,1786.7,1787.2,1788,1787.9,1785.5,1790,1786.6,1781.2,1774.6,1759,1749.3,1739.6,1732.7,1724.8,1718.3,1711.3,1704.1,1700.1,1706.1,1704.6,1704.5,1691.6,1696,1695.3,1694.4,1692,1687.8,1682.5,1675.4,1668.1,1663.3,1655,1645,1630.1,1625,1613.9,1598.3,1588.9,1588,1573.7,1571.8,1564.9,1559.4,1554,1541.4,1541.9,1535.2,1528.7,1522.6,1509.2,1508.5,1500.6,1492.7,1485.7,1480.3,1472.7,1459.6,1451.1,1443.2,1433,1424.3,1414,1403,1392,1384.8,1373.7,1361.5,1349,1334.1,1323.1,1312.7,1303.7,1294.5,1284.3,1277.6,1267.4,1259.2,1257,1250.9,1243.2,1230.7,1223.2,1214.9,1205.4,1195.1,1184.8,1173.2,1161.8,1148.2,1137,1129.3,1112.2,1096.8,1089.1,1079,1069.4,1059.7,1049.7,1040.8,1031.4,1022.6,1013.9,1007.3,1000.2,988.98,981.95,974.77,968.4,961.72,954.15,950.77,943.5,934.45,926.26,916.66,906.9,891.91,881.45,871.64,861.1,851.73,843.05,835.79,827.62,824.18,816.44,809.84,799.27,792.11,784.94,777.98,770.84,765.1,758.08,751.75,745.45,739.62,734.37,731.2,724.13,719.03,713.41,707.39,702.16,696.17,689.96,683.32,675.63,668.8,662.31,656.98,647.89,641.16,634.18,627.3,621.3,614.2,608.09,601.75,595.68,589.42,583.34,576.71,570.69,564.64,556.7,552.61,545.7,539.94,536.36,531.43,526.54,521.84,516.97,511.84,506.83,501.32,496.85,490.87,486.05,480.63,474.9,468.88,462.73,455.92,450.02,443.27,436.66,430.37,424.11,417.81,412.01,406.02,400.3,394.45,388.78,382.97,378.01,372.41,367.17,362.6,357.41,352.87,348.76,344.48,340.7,336.71,332.77,329.17,325.7,322.09,318.23,314.59,310.4,306.61,302.8,298.33,294.14,289.88,285.55,281.3,276.94,272.26,267.65,262.77,257.85,253.98,249.53,245.33,241.53,237.76,233.64,230.09,226.2,222.54,218.97,215.37,211.84,208.21,204.78,201.25,197.53,193.95,190.15,186.58,183.14,179.46,176.22,172.73,169.21,165.54,162.11,158.55,155.12,151.75,148.45,145.32,142.03,139.13,135.97,132.92,129.93,127.07,124.19,121.28,118.64,115.76,113.21,110.71,108.14,105.79,103.41,101.08,98.807,96.659,94.456,92.372,90.255,87.979,85.915,83.74,81.608,79.538,77.66,75.866,74.301,73.11
1.0809,1.1788,1.2698,1.3299,1.3399,1.443,1.5111,1.6113,1.6585,1.65,1.7448,1.7987,1.8761,1.9768,1.9932,2.0926,2.1223,2.1411,2.186,2.261,2.2955,2.299,2.3435,2.4171,2.4461,2.4794,2.5122,2.5552,2.5654,2.5904,2.6485,2.7469,2.7362,2.832,2.9038,2.9281,2.9872,3.0944,3.0938,3.2268,3.3774,3.4897,3.6525,3.8737,4.1895,4.4465,4.9042,5.4529,6.2159,7.1808,8.4799,9.9458,11.663,13.946,16.574,19.429,22.728,26.155,29.639,32.921,36.577,40.334,44.327,48.58,52.047,56.317,60.822,65.172,69.317,73.053,77.209,81.608,85.782,90.164,94.29,98.601,102.52,106.92,111.53,116.39,121.37,126.69,131.9,136.96,142.62,147.89,153.53,159.16,164.9,170.91,177.1,183.73,190.18,196.86,203.52,210.31,216.68,224.6,232.21,237.96,244.96,252.61,259.78,267.29,275.3,283.31,291.64,300.4,309.5,318.44,327.45,335.05,343.28,352.04,361.22,371.02,380.99,391.89,402.19,414.25,424.96,435.38,445.28,453.64,463.62,473.73,484.9,496.7,509.01,521.21,534.66,544.51,554.35,563.59,573.71,581.7,592.42,603.6,615.49,626.99,637.4,648.02,658.28,667.96,678.5,691.69,701.68,709.63,720.14,731.04,742.95,755.63,766.82,779.33,790.71,801.51,812.21,822.59,836.79,842.86,855.58,872.73,887.37,902.14,915.63,926.14,941.26,951.43,960.76,970.16,979.06,986.55,997.65,1009.2,1021.1,1034.6,1045.6,1055.8,1064.8,1073.4,1081.4,1093.7,1101.2,1103.1,1109.7,1117.2,1124.7,1132.5,1139.6,1147.4,1154.3,1162.2,1169.8,1177.2,1184.8,1186,1191.6,1201.8,1207.2,1213.2,1217,1231.1,1241.2,1252.3,1262.9,1273.7,1283.2,1287.1,1294,1300.5,1308.1,1315.1,1325.6,1337.3,1350.1,1371.6,1389.6,1407.8,1425.8,1437.3,1452.4,1467.4,1481.4,1495.4,1510.5,1524.7,1539.2,1554.9,1573.5,1596.9,1606.8,1621.7,1632.4,1643,1653.6,1663.6,1671.9,1682.4,1690.3,1697.9,1705.4,1709.7,1708.2,1710.8,1714.3,1717.9,1722.2,1726.7,1733,1745.7,1752.8,1764,1776.4,1787.9,1792.5,1799.8,1803,1805.2,1805.3,1803.2,1801.3,1798.8,1805.3,1808.1,1813.3,1818.2,1818.2,1825.7,1833.8,1842.4,1849,1854.1,1856.8,1855.5,1849.4,1844.7,1846,1841.3,1833.2,1832.9,1834,1838.7,1844.2,1848.5,1851.8,1853.7,1856.4,1859.5,1869.2,1862.8,1863.3,1860.3,1858,1857.5,1855.2,1853.7,1852.6,1850.1,1849.9,1852.3,1852.7,1852.5,1845.6,1844,1850,1848.9,1846.2,1844.5,1836.2,1842.9,1843.9,1845.8,1847.4,1848.6,1843.3,1842.7,1841.6,1838.3,1835.9,1831.7,1829.1,1824.5,1826.3,1820.8,1815.2,1812.2,1803.5,1801.7,1801.5,1803.6,1804.1,1804.7,1805.1,1802.4,1807.1,1803.7,1798.4,1791.8,1776.3,1766,1756.4,1749.5,1741.7,1734.8,1727.7,1720.5,1716.4,1723,1721.6,1720.6,1707.7,1713.1,1711.5,1711.4,1708.4,1703.9,1698.7,1691.8,1684.1,1678.9,1670.4,1660.6,1645.7,1640.7,1629.2,1613.7,1604.3,1603.2,1589.7,1587.1,1580.4,1575.1,1569.1,1557.2,1557.1,1550.2,1543.7,1537.5,1523.9,1522.9,1515.2,1506.9,1500,1494.7,1486.9,1473.9,1465.3,1457,1446.8,1438.4,1427.8,1417.2,1405.7,1398.3,1387.7,1375.1,1362.3,1347.5,1336.4,1325.8,1316.3,1306.9,1297,1289.9,1279.6,1271.4,1269.4,1263.1,1255.6,1243.3,1235.4,1227,1217.2,1207.2,1196.6,1184.6,1173,1159.6,1148.1,1140.2,1123.2,1107.9,1100.3,1089.6,1080.3,1070.4,1060.6,1051.7,1042.1,1033.4,1024.8,1017.5,1010.8,999.82,991.86,984.73,978.14,971.58,963.53,960.4,952.81,944.44,936,925.99,916.3,901.57,891.14,880.66,870.3,860.61,851.58,844.03,836.04,832.57,824.8,818.18,807.39,800.25,792.59,785.23,778.6,772.75,765.44,759.41,753.21,747.12,741.97,738.53,731.6,726.37,720.65,714.55,709.27,703.35,696.47,689.99,682.42,675.51,669.11,663.73,654.49,647.53,640.64,633.85,627.49,620.36,614.33,607.8,601.72,595.44,589.44,582.62,576.58,570.67,562.48,558.33,551.21,545.45,542.07,537.35,532.22,527.34,522.45,517.53,512.69,506.82,501.93,496.09,490.93,485.53,479.82,473.66,467.47,460.57,454.9,447.88,440.99,434.81,428.31,422.05,416.13,410.02,404.3,398.48,392.68,387.04,381.86,376.47,371.06,366.36,361.19,356.6,352.16,347.98,344.04,339.83,336.16,332.22,328.95,325.14,321.37,317.66,313.34,309.68,305.78,301.38,297.17,292.75,288.24,284.04,279.57,274.89,270.21,265.33,260.68,256.24,251.97,247.7,243.98,239.98,235.79,232.07,228.39,224.77,221.13,217.42,214.06,210.39,206.76,203.14,199.5,195.91,192.07,188.45,184.8,181.36,177.86,174.27,170.8,167.27,163.85,160.31,156.73,153.43,149.89,146.8,143.56,140.38,137.38,134.08,131.27,128.28,125.46,122.54,119.93,117.08,114.34,111.8,109.3,106.83,104.4,102.09,99.759,97.668,95.373,93.311,91.118,89.019,86.735,84.578,82.56,80.369,78.347,76.651,75.074,73.819
1.0142,1.1309,1.2245,1.2829,1.3333,1.4254,1.5007,1.5301,1.6151,1.6499,1.7096,1.7924,1.8124,1.8806,1.9753,1.9953,2.0672,2.1353,2.1728,2.2025,2.2585,2.2567,2.325,2.4049,2.4133,2.5193,2.4489,2.5155,2.5294,2.5862,2.68,2.7054,2.7387,2.7985,2.7919,2.8632,2.9713,3.0183,3.0459,3.2392,3.3201,3.4357,3.6465,3.8465,4.1144,4.4255,4.8216,5.3924,6.1499,7.1533,8.3519,9.7144,11.496,13.733,16.364,19.256,22.29,25.781,29.128,32.721,36.242,39.955,43.801,47.984,51.486,55.591,60.249,64.557,68.595,72.303,76.759,81.015,85.036,89.423,93.461,97.672,101.74,106.16,110.65,115.44,120.3,125.59,130.65,135.8,141.44,146.74,152.08,157.9,163.67,169.51,175.98,182.26,188.74,195.14,201.77,208.68,215.2,222.99,230.23,236.25,243.45,250.65,257.84,265.38,273.06,281.06,289.39,298.08,307.07,315.59,324.68,332.38,340.61,349.23,358.12,367.61,377.64,388.07,398.9,410.82,421.11,431.47,441.51,449.59,459.43,469.84,480.79,491.99,504.16,516.2,529.48,539.46,549.27,558.65,568.35,576.16,587.08,598.03,609.72,621.17,631.46,642.12,652.01,661.62,671.8,684.9,694.91,702.94,713.24,724.15,735.79,748.33,759.63,771.74,783.09,793.59,803.66,813.95,828.34,833.99,846.5,863.99,877.71,892.08,905.5,915.98,930.98,940.92,949.81,959.13,968.08,975.56,986.65,998.05,1009.5,1023,1033.6,1043.8,1052.6,1061,1068.9,1081.1,1088.9,1090.5,1097.3,1104.4,1112.2,1119.7,1127,1134.9,1141.7,1149.3,1156.8,1164.4,1171.8,1173.2,1177.8,1188.3,1194,1199.6,1203.4,1216.8,1227.2,1237.9,1248.8,1259.5,1269.3,1273,1279.7,1285.8,1293.5,1300.4,1310.5,1322.2,1334.7,1355.5,1374.3,1391.7,1409.4,1420.6,1435.9,1450.4,1464.8,1478.2,1492.9,1507.1,1521.2,1536.5,1554.9,1578.1,1587.4,1602.3,1613,1623.3,1634,1643.8,1652.2,1662.3,1669.6,1677.8,1685.2,1689.7,1687.6,1690.5,1693.3,1697.4,1701.5,1706.6,1712.1,1724.4,1732,1742.5,1755.1,1766.4,1770.8,1777.5,1781.1,1783,1783.2,1780.6,1778.8,1777.4,1783.4,1785.8,1790.8,1796,1796.2,1803.3,1811.9,1819.8,1825.8,1831.5,1833.9,1832.4,1826.7,1821.8,1823,1818.7,1810.6,1810.4,1811.5,1816.2,1821.1,1826,1828.8,1830.8,1833.1,1836.6,1845.8,1839.8,1840.2,1837.1,1834.5,1834.3,1831.7,1830.9,1829.7,1826.9,1826.7,1829,1829.9,1829.9,1822.7,1820.6,1826.8,1825.4,1822.9,1821.5,1813,1819.3,1820.8,1822.5,1823.9,1825.6,1819.8,1819.9,1818.5,1815.3,1812.4,1808.8,1806.2,1800.9,1802,1797.6,1792.1,1789.2,1780.8,1779.4,1778.9,1780.8,1781.6,1782.4,1782.5,1779.4,1784.2,1780.5,1775.2,1768.7,1753.6,1743.5,1733.9,1727.4,1719,1712.7,1705.7,1698.7,1694.7,1700.6,1699.4,1699.4,1685.7,1690.6,1689.4,1689.3,1686.6,1682.1,1676.9,1669.9,1662.6,1657.7,1648.9,1639.2,1624.6,1619.4,1608.3,1592.9,1583.6,1582.4,1568.5,1566.4,1559.3,1553.8,1547.8,1536.1,1536.3,1529.4,1523.4,1517.6,1503.6,1502.7,1495.1,1487.2,1480.2,1474.8,1467.3,1454.3,1445.9,1437.8,1427.9,1419.2,1408.8,1398.2,1386.8,1379.7,1368.7,1356.3,1344,1329.5,1318.2,1307.8,1298.7,1289.7,1279.7,1272.8,1262.8,1254.3,1252.6,1246.1,1238.4,1226.7,1218.4,1210.3,1200.7,1191.4,1180.6,1168.7,1157.4,1144.2,1133,1125.3,1108.5,1093,1085.5,1074.8,1065.5,1055.3,1045.8,1037.2,1027.3,1018.8,1010.4,1003.6,996.42,985.7,977.99,971.4,964.75,958.21,950.46,947.37,940.05,931.54,922.82,912.7,903.43,888.48,878.11,868.1,858.07,848.57,839.69,832.4,824.47,821.05,813.54,807.24,796.28,789.18,781.92,774.68,767.94,762.31,755.38,748.92,742.98,736.96,731.95,728.41,721.77,716.34,710.85,704.91,699.59,693.57,687.21,680.68,673.28,666.39,659.83,654.54,645.72,638.63,631.81,625.11,619.14,612.17,606.11,599.9,593.5,587.2,581.3,574.65,568.62,562.6,554.65,550.6,543.9,538.08,534.64,529.35,524.37,519.46,514.67,509.61,504.85,499.42,494.73,488.93,484.21,478.78,472.78,467.11,460.9,454.1,448.41,441.36,434.9,428.87,422.48,416.31,410.52,404.4,398.66,393,387.24,381.48,376.55,371.02,365.7,361.15,356.07,351.58,347.55,343.11,339.37,335.41,331.52,327.94,324.53,320.83,316.93,313.49,309.2,305.42,301.33,297.14,293.04,288.86,284.59,280.2,275.93,271.31,266.6,261.74,257.07,252.83,248.64,244.45,240.65,236.85,232.73,228.98,225.41,221.88,218.34,214.66,211.06,207.5,203.86,200.44,196.85,193.02,189.45,185.97,182.16,178.79,175.49,172.02,168.45,164.86,161.44,157.99,154.65,151.21,147.89,144.69,141.5,138.51,135.31,132.18,129.39,126.46,123.71,120.78,118.2,115.35,112.67,110.21,107.69,105.36,102.95,100.7,98.461,96.215,94.009,91.896,89.77,87.576,85.592,83.454,81.297,79.397,77.463,75.707,74.007,72.857
1.0899,1.1537,1.2378,1.3475,1.4112,1.4344,1.4615,1.5616,1.5896,1.626,1.7477,1.7917,1.8353,1.8924,1.9431,1.9989,2.0889,2.1297,2.1682,2.2019,2.2349,2.3128,2.3776,2.4316,2.4333,2.5442,2.5103,2.5096,2.5674,2.6014,2.6851,2.6729,2.7811,2.8234,2.8248,2.9456,2.9848,3.0737,3.1409,3.2683,3.3019,3.4242,3.6299,3.8624,4.0762,4.4811,4.9862,5.4618,6.2434,7.1753,8.5301,9.8673,11.646,13.984,16.547,19.498,22.64,26.079,29.596,33.042,36.628,40.494,44.462,48.554,52.158,56.218,60.845,65.296,69.416,73.086,77.591,81.687,85.939,90.26,94.312,98.577,102.67,106.96,111.55,116.41,121.51,126.67,131.97,137.1,142.61,147.82,153.31,158.97,164.8,170.93,177.29,183.84,190.22,196.81,203.4,210.35,216.7,224.69,232.23,238.03,245.28,252.64,259.67,267.1,275.22,283.15,291.58,300.31,309.31,318.05,327.22,335.04,343.16,351.9,360.99,370.56,380.65,391.35,401.86,414.05,424.37,434.85,444.63,453.06,462.83,473.29,484.26,496.14,508.04,520.13,533.47,543.47,553.05,562.9,572.44,580.44,591.45,602.5,614.47,625.66,636.04,646.71,656.69,666.59,676.9,690.12,700.18,708.06,718.72,729.25,741.44,753.85,765.24,777.53,788.7,799.48,809.86,820.57,834.68,840.48,853.5,870.68,884.92,899.25,912.92,923.61,938.62,948.49,957.79,966.72,975.92,983.38,994.55,1006,1017.8,1031.1,1041.9,1052.1,1061,1069.5,1077.6,1089.8,1097.3,1099,1105.8,1113,1121.1,1128.4,1135.6,1143.2,1150.3,1157.9,1165.3,1173,1180.4,1181.8,1186.9,1197.4,1203.1,1208.6,1212.4,1226.4,1237,1247.2,1258.4,1269,1278.6,1282.4,1289.6,1295.7,1303.3,1310.3,1320.4,1332,1345.5,1366.8,1384.9,1402.6,1420.5,1431.6,1447,1461.9,1475.8,1489.9,1504.3,1518.4,1532.8,1548.7,1566.9,1590.2,1599.9,1614.6,1625.5,1636,1646.6,1655.7,1664.7,1674.9,1682.7,1690.3,1698.1,1702.1,1700.3,1703.3,1706.6,1710,1714.3,1719.1,1724.9,1737.4,1744.7,1755.4,1768.2,1779.7,1784.4,1791.1,1794.4,1796.4,1796.7,1794.5,1791.8,1790.2,1796.8,1799.2,1804.7,1808.8,1809.6,1816.6,1825,1833.4,1839.5,1844.7,1847.7,1846.1,1840.1,1835.4,1836.9,1831.8,1823.6,1823.6,1824.7,1829.4,1834.5,1838.9,1842.4,1844.4,1846.6,1850.1,1859.4,1853.4,1853.7,1851.3,1848.2,1847.8,1845.1,1844.4,1843,1840.5,1840.3,1842.7,1843.5,1843.6,1835.9,1833.8,1840,1838.7,1836.5,1834.8,1826.3,1832.5,1833.9,1835.6,1837.4,1838.9,1833,1833.1,1831.6,1828.5,1826.4,1822.2,1819.4,1814.1,1815.9,1811,1805.3,1802.2,1793.8,1792.8,1792.2,1794.3,1794.6,1795.2,1795.5,1792.8,1797.4,1793.3,1788.1,1781.8,1766.9,1756.1,1747,1740.1,1731.9,1725.1,1718.1,1710.7,1706.9,1713.1,1711.8,1711.3,1698.3,1703.1,1702.3,1701.6,1699.2,1694.6,1689,1682,1674.4,1669.8,1661.2,1651.3,1636.7,1631.4,1620.2,1604.6,1595,1593.9,1580.1,1578.4,1570.9,1565.6,1559.7,1547.5,1547.9,1540.8,1534.8,1528.8,1515.1,1514.2,1506.3,1498.3,1491.6,1486.4,1478.1,1465.1,1456.7,1448.3,1438.4,1429.6,1419.3,1408.3,1397.4,1389.8,1378.6,1366.5,1354.2,1339.4,1328.1,1317.7,1308.5,1299.3,1289.1,1282.4,1272,1263.9,1261.6,1255.4,1247.8,1235.1,1227.7,1219.4,1209.5,1199.5,1188.7,1177.3,1165.6,1152.3,1140.8,1132.8,1116,1100.8,1093.2,1082.7,1073.3,1063.2,1053.2,1044.9,1035.1,1026.6,1017.7,1010.8,1003.8,992.8,985.09,978.27,971.74,965.06,957.13,954.02,946.62,937.93,929.55,919.66,910.06,895.12,885.27,874.67,864.62,854.76,846.02,838.57,830.34,827.1,819.37,812.8,802.17,794.96,787.46,780.38,773.03,767.39,760.72,754.21,748.23,742.29,736.84,733.73,726.71,721.46,716.01,709.79,704.4,698.7,692.07,685.46,678.06,670.81,664.26,659.21,650.06,643.08,636.3,629.41,623.54,616.74,610.2,603.88,597.54,591.39,585.3,578.43,572.5,566.64,558.79,554.46,547.77,541.82,538.34,533.56,528.62,523.5,518.98,513.55,508.84,503.23,498.49,492.57,487.79,482.38,476.51,470.47,464.5,457.62,451.71,444.97,438.28,432.13,425.78,419.47,413.64,407.28,401.73,396.24,390.21,384.51,379.52,373.69,368.62,363.67,359,354.32,350.17,345.6,342.04,338.17,334.16,330.25,327.13,323.42,319.54,315.81,311.5,307.76,303.81,299.37,295.34,290.98,286.69,282.28,277.71,273.23,268.45,263.69,258.92,254.76,250.37,246.43,242.55,238.65,234.39,230.85,227.14,223.34,219.74,216.28,212.76,209.17,205.44,201.96,198.27,194.58,190.68,187.28,183.73,180.24,176.79,173.18,169.89,166.33,162.69,159.13,155.83,152.49,149.01,145.99,142.6,139.64,136.52,133.54,130.29,127.32,124.71,121.77,119.06,116.37,113.7,111.13,108.64,106.26,103.87,101.68,99.339,97.082,94.901,92.654,90.521,88.382,86.214,84.011,81.907,79.875,77.912,76.288,74.574,73.351
1.0562,1.1572,1.2823,1.2827,1.3879,1.4395,1.4778,1.5685,1.5775,1.6875,1.7217,1.8242,1.8708,1.9401,1.9804,2.0672,2.0892,2.1322,2.205,2.2794,2.2915,2.3189,2.3919,2.4559,2.4586,2.4599,2.5099,2.5402,2.6068,2.6956,2.771,2.7506,2.7914,2.8697,2.9485,2.924,2.9982,3.111,3.1955,3.3131,3.4081,3.5526,3.7493,3.957,4.1901,4.5406,4.9653,5.5458,6.2905,7.3587,8.6934,10.157,12.004,14.297,17.046,20.116,23.434,26.841,30.493,34.024,37.545,41.601,45.671,50.021,53.531,57.853,62.677,66.956,71.081,74.963,79.358,83.75,87.927,92.416,96.422,100.91,104.83,109.44,114.22,119.22,124.38,129.71,135.15,140.31,145.82,151.22,156.7,162.57,168.6,174.77,181.28,187.96,194.82,201.28,207.8,214.88,221.31,229.57,237.26,243.17,250.24,257.85,265.05,272.86,280.81,288.99,297.54,306.39,315.84,324.65,333.91,341.43,349.99,358.51,368.33,378.44,388.58,399.47,409.69,421.93,432.4,443.02,453.33,462.13,472.2,482.67,493.56,505.38,517.93,530.39,543.45,553.49,563.25,573.1,582.88,591.14,602.18,613.13,624.88,636.35,646.85,657.64,668.07,677.91,688.27,701.48,711.63,719.45,730.15,740.74,753.24,765.49,776.65,789.57,800.73,811.46,821.95,832.73,847.11,852.96,866.09,883.56,898.34,913.13,926.75,937.01,952.03,961.98,971.31,980.58,989.94,996.69,1008.1,1019.5,1031.8,1045.4,1056.3,1066.7,1075.9,1084.2,1092.4,1104.5,1112.4,1113.8,1120.9,1128.1,1135.8,1143.3,1150.7,1158.5,1165.4,1172.9,1180.9,1188,1196.1,1197.1,1202.6,1213.1,1218.5,1224.7,1228.6,1242.7,1253.1,1263.6,1274.7,1285.4,1294.9,1298.9,1305.7,1312.4,1320,1327.3,1337.2,1349.7,1362.5,1384.3,1403.3,1420.5,1439,1450.2,1465.4,1480.3,1494.7,1508.6,1523.5,1537.7,1552.6,1568.8,1587.1,1610.7,1620.6,1635.7,1646.2,1656,1667.2,1676.9,1685.9,1695.9,1703.8,1711.6,1719.4,1723.6,1722.4,1725,1728.3,1731.8,1736.1,1740.7,1746.5,1759.3,1767,1777.7,1791,1802.3,1806.7,1813.9,1817.2,1819.2,1819.3,1817.1,1814.8,1812.7,1819.5,1822.2,1826.9,1832,1832.2,1839.7,1848,1856.5,1862.6,1868.6,1870.3,1869,1863,1858.9,1859.8,1854.8,1846.8,1846.6,1847.5,1852.3,1857.8,1861.8,1865.4,1867.3,1869.4,1873.2,1882.8,1876.4,1876.6,1873.9,1871.2,1871,1868.2,1867.4,1866,1863.1,1862.9,1865.8,1866,1866,1858.7,1857.4,1863.2,1861.9,1859.3,1857.6,1849.2,1855.9,1856.9,1859,1860.5,1862.1,1856,1856.1,1854.5,1851,1848.8,1844.5,1842.2,1836.6,1838.9,1833.7,1828.1,1824.7,1816.2,1814.9,1814.3,1816.6,1817.2,1817.3,1817.4,1815.1,1820,1816.5,1810.9,1803.7,1788.6,1778.4,1769.2,1762.1,1753.9,1747.3,1739.9,1733,1729.1,1734.7,1733.3,1732.7,1719.6,1725.1,1723.7,1723.4,1720.6,1715.7,1710.7,1703.7,1695.6,1690.7,1681.9,1672.5,1656.9,1652.1,1640.4,1625,1615.1,1614.6,1600.9,1598.8,1591.4,1586.1,1580,1568.5,1568.6,1561.1,1554.8,1549.1,1534.7,1533.8,1526,1518,1510.5,1505.1,1497.2,1484.2,1475.3,1466.9,1457.4,1448.4,1438,1426.8,1415.6,1408.5,1397.1,1384.9,1372.5,1357.5,1345.4,1334.9,1325.5,1316.2,1305.8,1298.9,1288.5,1280.2,1277.6,1271.2,1263.7,1251.5,1243.5,1235.2,1225.3,1215.3,1204.4,1192.5,1180.6,1167.2,1155.6,1147.4,1130.2,1115,1107.2,1097,1087.1,1077.4,1067.7,1058.7,1049.2,1040.8,1031.6,1024.6,1017.6,1006.2,998.52,991.05,984.47,977.87,970.08,966.58,959.38,950.67,942.23,932.2,922.61,907.92,897.09,886.86,876.52,866.39,857.35,849.69,841.7,838.02,830.12,823.69,812.58,805.35,797.72,790.66,783.42,777.67,770.55,764.06,758.05,751.65,746.75,743.24,736.29,731.01,725.35,719.19,713.72,708.16,701.2,694.53,686.66,679.78,673.23,667.75,658.83,651.73,644.84,637.82,631.69,624.51,618.32,611.77,605.71,599.39,593.04,586.66,580.03,574.38,566.06,561.97,554.88,549.13,545.75,540.7,535.86,530.83,526.13,521.1,516.3,510.1,505.31,499.35,494.58,488.92,483.11,476.94,470.57,463.87,457.82,450.7,444.09,437.68,431.26,424.76,418.69,412.61,406.8,401.24,395.27,389.64,384.49,378.95,373.68,368.89,363.71,358.74,354.58,350.11,346.34,342.25,338.45,334.44,331.16,327.52,323.45,319.93,315.54,311.72,307.64,303.21,299.17,294.91,290.3,286.03,281.65,276.83,272.06,267.14,262.39,257.96,253.5,249.46,245.57,241.5,237.47,233.77,229.99,226.28,222.49,219.04,215.45,211.83,208.14,204.56,200.94,197.23,193.44,189.75,186.12,182.57,179.15,175.56,172.12,168.4,165.04,161.38,157.74,154.43,151.14,147.65,144.52,141.3,138.23,135.02,131.95,129.11,126.31,123.41,120.6,117.78,115.12,112.49,110.1,107.59,105.11,102.89,100.57,98.339,96.053,93.977,91.665,89.452,87.224,85.17,83.005,80.903,79.007,77.222,75.594,74.543
1.0324,1.1251,1.1887,1.308,1.3508,1.3771,1.4963,1.4923,1.606,1.6167,1.6991,1.7882,1.841,1.841,1.974,1.995,2.0531,2.0497,2.1355,2.1778,2.234,2.2295,2.2706,2.3494,2.3649,2.4791,2.4217,2.4918,2.5521,2.5313,2.6292,2.631,2.7719,2.7828,2.8798,2.9232,2.9185,3.0505,3.0978,3.216,3.2969,3.4126,3.6687,3.8338,4.1167,4.4571,4.8957,5.4513,6.2797,7.1585,8.4155,9.7927,11.652,13.883,16.338,19.32,22.607,26.116,29.427,32.969,36.517,40.405,44.323,48.515,51.948,56.233,60.877,65.11,69.1,72.964,77.224,81.444,85.661,90.052,94.192,98.29,102.44,106.72,111.21,116.05,120.96,126.22,131.3,136.55,142.04,147.43,152.9,158.55,164.37,170.42,176.68,183.08,189.46,196.23,202.61,209.63,215.98,223.86,231.41,237.2,244.3,251.71,258.71,266.41,274.1,282.15,290.33,299.07,307.96,316.88,325.75,333.36,341.78,350.06,359.16,368.82,378.74,389.24,399.84,412.17,422.39,432.83,442.83,451.11,460.96,471.14,482.33,493.66,505.84,517.81,531.13,540.99,550.81,560.22,569.71,577.71,588.57,599.37,611.1,622.44,632.79,643.07,652.74,662.6,672.97,685.82,695.92,703.67,713.94,724.68,737.03,749.22,760.87,773.1,784.25,794.81,805.16,815.39,829.55,835.48,848.4,865.4,879.51,893.81,907.43,917.92,932.48,942.62,951.85,960.7,970.11,977.63,988.31,999.86,1011.3,1025.2,1035.6,1045.9,1054.5,1062.9,1071.1,1083.3,1090.8,1092.7,1098.9,1106.6,1114.4,1121.6,1129.1,1136.8,1143.6,1151.1,1159.1,1165.9,1173.8,1175.1,1180.1,1190.3,1195.9,1201.7,1205.1,1219.2,1229.6,1239.9,1250.8,1261.7,1270.9,1274.8,1281.6,1288.4,1295.6,1302.7,1312.6,1324.4,1337.1,1358.4,1376.5,1393.8,1411.9,1423.1,1438.1,1452.9,1467.4,1480.4,1495.4,1509.5,1523.8,1539.5,1557.5,1580.7,1590.5,1605.4,1616.1,1626.5,1636.9,1646.4,1654.9,1665.1,1672.9,1680.5,1687.6,1692,1690.6,1694,1697,1700.5,1704.7,1709.3,1715.5,1728,1734.7,1746.1,1758.1,1769,1774,1780.9,1784.6,1786,1786.6,1784.1,1781.6,1780.1,1786.3,1788.9,1794,1798.9,1799.2,1806.3,1814.4,1822.8,1828.8,1834.3,1836.8,1835.1,1829.6,1824.6,1826,1820.8,1812.9,1813.1,1814,1818.8,1823.8,1828.2,1831.7,1833.9,1835.8,1839.3,1848.5,1842.9,1842.9,1840.2,1837.6,1837.4,1834.6,1833.8,1832.3,1829.6,1829.5,1832.4,1832.7,1832.8,1825.7,1823.8,1829.8,1828.9,1826,1824.3,1816.2,1822.8,1824,1825.7,1827.1,1828.6,1823.2,1823.3,1822.1,1818.7,1816.6,1812.2,1809.4,1804.2,1805.8,1801,1795.6,1792.6,1783.9,1782.9,1782.1,1784.4,1785.1,1785.3,1785.6,1783.4,1787.3,1783.4,1778.9,1772.2,1757.2,1746.8,1737.5,1730.8,1722.6,1715.5,1708.7,1701.4,1697.7,1704.2,1702.7,1701.8,1689.1,1693.8,1693.1,1692.2,1689.7,1685.2,1680,1673.5,1665.5,1661.2,1652.4,1643,1627.6,1622.8,1611.4,1595.9,1586.9,1585.8,1571.7,1569.9,1562.6,1557.1,1551.3,1539.8,1539.6,1532.7,1526.3,1520.8,1507,1505.8,1498.6,1490.3,1483.5,1478.4,1470.5,1457.3,1449.4,1440.5,1430.6,1421.8,1411.1,1400.8,1389.7,1382.7,1371.4,1359.3,1347,1332.3,1321.2,1310.4,1301.2,1292.3,1282.1,1275.4,1265.3,1257.5,1255,1248.9,1241.3,1229.1,1221.1,1213,1203.1,1193.3,1183,1171.2,1159.3,1146.6,1135.5,1127.8,1110.5,1095.4,1087.6,1077.3,1067.8,1057.9,1048.1,1039.1,1029.6,1021.2,1012.7,1005.5,998.53,987.65,980.47,973.2,966.54,960.13,952.54,949.19,941.81,933,924.89,914.86,905.31,890.52,880.27,870.15,860.09,850.6,841.57,834.05,826.11,822.59,815.04,808.74,797.94,790.96,783.46,776.39,769.68,763.86,756.85,750.29,744.37,738.53,733.41,729.83,723.18,717.8,712.32,706.26,700.78,694.85,688.6,681.86,674.7,667.43,660.88,655.94,646.56,639.82,632.78,626.16,620.12,613.39,607.18,600.52,594.48,588.37,582.31,575.59,569.61,563.35,555.82,551.72,544.63,538.84,535.34,530.43,525.35,520.4,515.8,510.63,505.7,500.23,495.38,489.8,484.88,479.57,473.89,467.83,461.58,454.91,449.2,442.06,435.64,429.39,423.14,416.81,410.85,404.98,399.28,393.58,387.64,382.14,376.96,371.42,366.18,361.59,356.62,351.98,347.94,343.47,340,335.85,332.05,328.36,325.01,321.2,317.32,313.8,309.4,305.67,301.83,297.41,293.2,289.19,284.78,280.44,276.02,271.5,266.79,261.93,257.24,253.02,248.85,244.59,240.86,236.95,232.89,229.07,225.6,221.87,218.2,214.79,211.17,207.59,204.01,200.45,196.91,193.15,189.43,185.94,182.52,178.94,175.56,172.08,168.62,165.02,161.52,158.08,154.62,151.41,147.95,144.78,141.5,138.47,135.36,132.32,129.3,126.58,123.81,120.79,117.96,115.22,112.63,110.22,107.71,105.29,103.04,100.64,98.402,96.274,94.032,91.937,89.741,87.491,85.426,83.36,81.221,79.202,77.421,75.562,73.983,72.767
1.0871,1.2035,1.2729,1.375,1.3872,1.4242,1.5546,1.5792,1.6689,1.7162,1.745,1.8335,1.9266,1.9575,2.0372,2.0755,2.1148,2.1974,2.2069,2.2545,2.2887,2.3835,2.3656,2.4019,2.4169,2.5725,2.5295,2.5286,2.6062,2.6124,2.6949,2.7305,2.7855,2.8603,2.9447,2.9624,3.0375,3.0986,3.2151,3.2813,3.3941,3.5419,3.6676,3.9388,4.2456,4.5452,5.0117,5.6444,6.4256,7.377,8.7601,10.25,12.285,14.427,17.228,20.355,23.617,27.195,30.854,34.347,37.939,42.075,46.159,50.495,54.057,58.474,63.238,67.61,71.63,75.631,80.113,84.269,88.587,93.178,97.252,101.66,105.64,110.23,114.95,119.97,125.13,130.5,135.92,141.22,146.7,152.16,157.79,163.57,169.37,175.7,182.27,189.05,195.67,202.39,208.93,215.94,222.43,230.45,238.29,244.1,251.5,258.9,266.27,273.97,282.2,290.34,298.73,307.69,316.83,326.07,335.1,342.84,351.27,360.17,369.84,379.6,389.76,400.45,410.96,423.37,433.76,444.85,455.29,463.66,473.91,484.17,495.24,507.54,519.65,531.87,544.82,554.84,564.7,574.25,584.13,592.11,603.39,614.19,626.06,637.42,648.03,658.49,668.91,678.5,688.94,701.95,712.43,720.01,730.74,741.58,753.73,766.29,777.84,790.13,801.1,812.4,823.11,833.79,847.95,853.87,867.37,884.55,899.23,913.76,927.72,937.81,952.5,962.08,972.01,980.82,989.99,997.42,1008.5,1020.2,1032.3,1046,1056.6,1066.8,1075,1083.7,1092.1,1104.2,1111.7,1113.2,1120,1127.6,1135.6,1142.9,1150.3,1157.9,1165,1172.4,1180.6,1188,1195.5,1197,1202.3,1212.7,1218.3,1224.6,1228.2,1242.3,1252.3,1263.3,1274.2,1285.2,1294.8,1298.5,1305.5,1312.2,1319.8,1327.2,1337.3,1349.6,1362.8,1384.4,1403.3,1420.8,1439.5,1450.2,1465.8,1480.6,1494.8,1508.6,1523.5,1538,1552.8,1568.9,1586.9,1610.6,1620.3,1635.1,1646.1,1656.4,1667.1,1677,1685.4,1695.3,1703.5,1711.3,1719,1723.2,1721.7,1724.5,1727.8,1731.3,1735.4,1740.2,1746.5,1759,1767,1777.2,1790.4,1801.3,1806.3,1813.3,1816.2,1818.4,1818.2,1816,1813.9,1812.2,1818.7,1820.9,1826.3,1831,1831.3,1839.4,1847.5,1855.9,1861.9,1867.8,1870,1868,1861.8,1857.1,1858.2,1853.3,1845.2,1845.2,1846,1851.3,1856.5,1860.6,1864.3,1866.2,1868.8,1872.1,1881.7,1876,1875.7,1873,1869.4,1869.6,1866.8,1865.6,1864.3,1862.4,1862.1,1864.6,1865.8,1865.2,1858.4,1856.6,1862.3,1861.2,1858.7,1857,1848.2,1855,1856.1,1857.4,1859.8,1860.8,1855.1,1855.2,1854.2,1850.2,1848.2,1843.7,1841.1,1835.5,1837.6,1832.4,1827.3,1824,1815.1,1813.8,1812.7,1815.5,1816,1816.6,1816.9,1814.4,1819.3,1815.5,1809.9,1803.2,1787.9,1777.2,1768.3,1761.5,1752.8,1746.8,1739.3,1731.6,1728.1,1734.4,1733,1731.8,1719.1,1724.3,1723.1,1722.7,1720.1,1715.1,1709.8,1702.9,1695.1,1690.2,1681,1671.5,1656.1,1650.5,1639.7,1624,1614.6,1613.7,1599.6,1597.8,1590.6,1585.2,1579.3,1567.5,1568.2,1560.7,1554.3,1548.5,1534.3,1533.4,1525.2,1517.2,1510.6,1505.3,1496.4,1483.3,1474.8,1466.4,1456.3,1447.4,1436.7,1425.9,1414.2,1407.5,1396.5,1384.1,1371.6,1356.2,1344.7,1334.1,1324.3,1315.4,1304.9,1297.9,1287.6,1279.2,1277.1,1270.6,1263,1250.5,1242.5,1233.8,1224.4,1214.2,1203.3,1191.5,1179.8,1166.3,1154.6,1146.5,1129.1,1113.9,1106.2,1095.7,1086.3,1076.6,1066.8,1057.6,1048.3,1039.8,1031.1,1023.8,1016.8,1005.8,997.79,990.74,984.1,977.45,969.22,966.31,958.81,949.98,941.48,931.66,922.29,906.84,896.68,886.35,875.83,866.09,856.73,849.15,840.79,837.62,829.91,823.13,812.17,805.21,797.5,790.13,783,777.07,769.79,763.44,757.55,751.3,746.06,742.94,735.95,730.26,724.79,718.7,713.57,707.54,700.8,694.24,686.4,679.41,672.91,667.56,658.11,651.25,644.36,637.4,630.98,624.06,617.83,611.1,605.11,598.77,592.88,586.08,579.94,573.82,565.81,561.48,554.58,548.87,545.07,540.1,535.57,530.57,525.74,520.45,515.71,509.95,504.96,499.28,494.01,488.68,482.77,476.62,470.28,463.48,457.41,450.49,443.81,437.48,430.95,424.45,418.53,412.16,406.71,401.03,394.97,389.17,384.25,378.51,373.37,368.35,363.35,358.61,354.4,349.83,345.91,341.89,337.88,334.22,330.77,327.11,323.17,319.55,315.11,311.35,307.45,302.94,298.84,294.36,290.02,285.53,281.1,276.35,271.6,266.59,261.69,257.46,253.06,249,245.08,241.32,237.02,233.3,229.65,225.68,222.14,218.71,214.92,211.44,207.7,204.06,200.7,196.81,193.07,189.39,185.76,182.38,178.9,175.32,171.78,168.11,164.5,161.02,157.48,154.22,150.75,147.49,144.12,141.12,138,134.84,131.68,128.89,126.07,123.1,120.28,117.51,114.74,112.24,109.75,107.23,104.78,102.55,100.14,98.024,95.776,93.701,91.433,89.129,86.931,84.79,82.773,80.64,78.638,76.996,75.309,74.106
1.0425,1.1254,1.2463,1.3167,1.3985,1.4409,1.4767,1.5541,1.6199,1.644,1.748,1.8037,1.8726,1.951,1.9851,2.0514,2.1149,2.1407,2.2008,2.2443,2.3174,2.2933,2.3637,2.4133,2.4158,2.5148,2.524,2.5773,2.5931,2.6251,2.6731,2.6906,2.7793,2.854,2.869,2.879,2.9153,3.0449,3.1526,3.2547,3.3838,3.5177,3.6612,3.8599,4.1149,4.5208,4.9176,5.5388,6.3006,7.2716,8.639,10.01,11.965,14.201,16.871,19.981,23.301,26.811,30.209,33.935,37.413,41.248,45.504,49.681,53.357,57.549,62.409,66.758,70.834,74.574,79.012,83.212,87.443,91.9,95.992,100.38,104.44,108.76,113.51,118.53,123.56,128.85,134.06,139.39,144.89,150.36,155.77,161.65,167.48,173.55,179.96,186.67,193.49,199.97,206.45,213.54,219.91,227.96,235.58,241.37,248.56,256.05,263.28,271.08,278.81,287.08,295.48,304.31,313.61,322.41,331.56,339.05,347.57,356.24,365.72,375.46,385.63,396.47,406.77,419.11,429.46,439.97,450.24,458.7,468.68,479.24,489.96,501.96,514.27,526.46,539.64,549.76,559.31,568.85,578.73,586.69,597.54,608.68,620.27,631.8,642.11,652.71,662.92,672.62,683.28,695.92,706.3,714.09,724.82,735.52,747.75,759.91,771.74,783.87,795.32,805.79,816.24,826.96,841.05,847.08,860.14,877.2,891.86,906.1,919.76,930.22,945.05,954.97,964.03,973.27,982.44,989.64,1001,1012.2,1024.1,1037.5,1048.3,1058.7,1067.7,1075.8,1083.7,1096.1,1103.7,1105.3,1111.8,1119.3,1127.1,1134.8,1141.8,1149.5,1156.4,1163.9,1171.7,1179,1187,1188.2,1193.3,1203.8,1209.4,1215.2,1218.9,1232.6,1243.3,1254,1265.1,1275.7,1284.8,1288.8,1296.1,1302.3,1309.7,1316.8,1327.1,1338.7,1351.9,1373,1391.5,1409.3,1427.4,1438.5,1453.6,1468.8,1482.8,1496.5,1511.4,1525.2,1539.8,1555.7,1574,1597.4,1607.4,1622,1632.8,1643,1654.2,1664,1672.3,1682.1,1690.1,1698.2,1705.1,1709.5,1708.1,1711.3,1714.3,1717.9,1722,1726.8,1732.6,1745.3,1752.4,1763.4,1776,1787.4,1791.8,1799.1,1802.7,1804.3,1804.6,1801.6,1800.2,1798.1,1804.5,1807.2,1811.9,1817.2,1817,1825.1,1833.3,1841.6,1847.7,1853.2,1855.4,1853.9,1847.8,1843.1,1844.3,1839.3,1831.7,1831.7,1832.1,1837.5,1842.2,1846.7,1849.6,1852,1853.8,1857.6,1867,1860.9,1860.8,1858.4,1855.8,1855.4,1852.9,1852.3,1850.6,1848.2,1847.7,1850.7,1850.4,1850.5,1842.8,1841.9,1847.7,1846.5,1843.9,1842.4,1833.9,1840.3,1842,1843.7,1845.4,1846.7,1841,1840.8,1839.2,1836.1,1833.2,1829.4,1826.6,1821.2,1823,1817.6,1812.4,1809.5,1800.5,1799.6,1798.7,1800.9,1801.4,1801.7,1802.1,1799.5,1804,1800.6,1795.1,1788.1,1773,1762.9,1753.5,1746.4,1738.5,1731.8,1724.1,1717.4,1713.6,1719.4,1718,1717.6,1704.3,1709.5,1708.1,1707.6,1705,1700.5,1695.1,1688.2,1680.7,1675.5,1666.8,1657.5,1641.9,1637.1,1625.5,1610.3,1600.3,1599.9,1585.8,1583.6,1576.1,1571,1565.1,1553.1,1553.2,1546.2,1539.7,1533.5,1519.8,1519.2,1511.7,1503.4,1496.1,1490.7,1482.8,1469.9,1461.6,1452.8,1443.4,1434.5,1423.8,1412.7,1401.4,1394.6,1383.2,1371.2,1358.9,1344.3,1332.7,1321.9,1312.6,1303.5,1293.1,1286.3,1276,1267.8,1265.3,1259.2,1252.2,1239.3,1231.2,1223.1,1213.4,1203.6,1193.1,1181.1,1169.4,1156,1144.6,1136.9,1119.5,1104.4,1096.8,1086.4,1076.6,1067,1057,1048.3,1038.5,1029.9,1021.2,1014.1,1007,996.07,988.64,981.53,975.17,968.47,960.5,957.58,949.81,941.28,932.97,922.88,913.41,898.32,888.35,877.7,867.6,857.8,848.55,841.04,833.12,829.46,821.95,815.39,804.37,797.43,789.86,782.82,775.77,770.14,763.25,756.54,750.79,744.45,739.32,735.94,729.16,723.61,718.01,712.26,706.51,700.82,694.15,687.44,679.98,673.01,666.5,661.27,652.21,645.26,638.21,631.22,625.33,618.36,612.02,605.71,599.32,593.08,587.07,580.54,574.23,568.62,560.26,556.18,549.22,543.39,540.13,535.04,530.07,525.02,520.01,515.29,510.5,504.61,499.79,494.09,489.13,483.72,478.22,471.9,465.8,459.02,452.97,446.27,439.4,433.38,426.71,420.59,414.86,408.56,402.92,397.06,391.49,385.71,380.64,375.06,369.81,365.01,359.88,355.34,351.02,346.74,342.96,339.06,335.05,331.25,327.94,324.13,320.36,316.48,312.35,308.42,304.6,300.15,296.12,291.71,287.45,283.03,278.54,273.75,269.26,264.37,259.55,255.32,250.94,246.76,243.01,239.02,234.86,231.41,227.6,223.84,220.33,216.72,213.03,209.5,205.93,202.42,198.76,195.06,191.22,187.64,184.13,180.54,177.2,173.7,170.19,166.58,163.17,159.59,156.21,152.89,149.55,146.29,142.95,139.76,136.78,133.74,130.59,127.74,125,122.1,119.39,116.55,114.04,111.48,108.88,106.45,103.97,101.56,99.356,97.304,95.042,92.841,90.61,88.33,86.316,84.216,82.045,79.99,78.132,76.447,74.942,73.407
1.0719,1.1224,1.2465,1.3278,1.4039,1.4539,1.5167,1.5751,1.6695,1.6798,1.7252,1.8194,1.8671,1.9115,1.9803,2.0476,2.0818,2.0911,2.1865,2.2491,2.2814,2.3049,2.3923,2.3851,2.4313,2.511,2.5272,2.4992,2.5974,2.6551,2.6342,2.6275,2.7842,2.8496,2.8632,2.9196,2.9992,3.0925,3.1562,3.2322,3.3984,3.5046,3.7054,3.9235,4.135,4.5687,4.9281,5.6272,6.3863,7.3535,8.7969,10.18,12.177,14.441,17.132,20.307,23.661,27.11,30.614,34.363,37.955,41.875,45.965,50.319,53.943,58.339,63.012,67.374,71.585,75.437,79.813,84.07,88.383,92.877,97.104,101.49,105.53,109.99,114.88,119.77,124.94,130.22,135.81,141,146.54,151.9,157.61,163.58,169.28,175.6,182.19,188.76,195.64,202.29,208.82,215.84,222.26,230.54,238.19,243.86,251.15,258.7,266.19,273.81,282.02,290.15,298.77,307.57,316.88,325.9,335.1,342.65,350.93,359.83,369.37,379.45,389.77,400.75,410.73,423.42,433.88,444.47,454.93,463.45,473.71,484.05,494.95,506.92,519.63,532,544.97,554.78,564.36,573.99,583.98,592.06,603.51,614.45,626.11,637.27,647.96,658.75,669,678.85,689.16,702.3,712.92,720.71,731.39,742.13,754.45,766.94,778.6,791.17,802.27,813.41,823.85,834.81,849.41,854.99,868.6,885.65,900.6,915.38,929.08,939.55,954.32,964.21,973.73,982.48,991.68,999.28,1010.4,1021.8,1033.8,1047.7,1058.7,1069,1078.1,1085.7,1093.6,1106.5,1113.6,1115.3,1122.1,1129.4,1137.4,1145,1152.3,1160.1,1166.8,1174.5,1182.4,1190.2,1197.5,1199.2,1204.4,1214.8,1220.5,1226.3,1230.2,1244.3,1254.6,1265.5,1276.4,1287.1,1296.8,1300.8,1307.5,1314.1,1321.9,1328.9,1339.6,1351.9,1365.3,1386.6,1405.4,1423.1,1441.6,1452.5,1468.3,1483.2,1497.1,1510.8,1526,1540,1554.7,1571.3,1589.6,1613,1622.9,1637.2,1648.2,1658.9,1669.7,1679.2,1688,1698.6,1705.8,1713.7,1721.4,1725.6,1724,1727,1730.3,1733.5,1737.9,1742.5,1748.8,1761.6,1768.9,1779.9,1792.8,1804,1808.5,1815.6,1818.8,1820.9,1821.4,1818.6,1816.5,1814.6,1820.8,1823.6,1828.7,1833.7,1833.9,1841.4,1849.5,1857.7,1864.3,1869.9,1872.3,1870.4,1864.3,1859.7,1860.7,1855.7,1847.5,1847.4,1848.5,1853.3,1858.4,1863.1,1866.4,1868.3,1870.5,1874.2,1883.5,1877.6,1877.8,1875,1871.5,1871.6,1868.8,1868,1866.8,1863.9,1864.3,1867,1867.7,1867.4,1859.8,1857.8,1864.3,1863.1,1860,1858.5,1850.2,1856.5,1858,1859.8,1861.5,1862.6,1856.5,1856.7,1855.7,1851.8,1850.1,1845.2,1843.2,1837.3,1839.1,1834.4,1829.1,1825.7,1816.9,1815.6,1815.1,1817.1,1817.9,1818.5,1818.6,1816.1,1820.6,1817,1811.7,1804.4,1789.6,1779.1,1769.9,1762.9,1754.7,1748.4,1740.7,1733.7,1729.5,1735.9,1734,1733.6,1720.6,1725.7,1724.3,1724,1721.4,1716.4,1710.9,1703.8,1696.3,1691.2,1682.5,1672.4,1657.5,1652.1,1640.8,1625.3,1615.6,1614.5,1601,1598.8,1591.8,1586.3,1580.2,1568.3,1568.7,1561.3,1555.3,1549.2,1535.2,1534,1526.1,1517.9,1510.8,1505.5,1497.2,1484.2,1475.4,1467.2,1457.4,1448.5,1437.6,1426.7,1414.6,1408.4,1397,1384.7,1372.1,1356.6,1345.2,1334.7,1325,1316,1305.6,1298.5,1288.2,1279.6,1277,1270.9,1263.2,1250.8,1243.2,1234.5,1224.6,1214.7,1203.8,1191.8,1179.9,1166.2,1154.5,1146.8,1129.6,1114.3,1106.7,1096,1086.7,1076.7,1066.5,1057.9,1048.3,1039.8,1030.9,1023.6,1016.8,1005.4,997.95,990.58,983.91,977.53,969.63,966.26,958.77,949.9,941.69,931.71,922.13,907.04,896.71,886.21,875.57,865.95,856.66,849.35,840.99,837.69,829.63,823.13,811.89,805.03,797.32,790.17,782.98,777.1,769.82,763.28,756.72,751.26,745.98,742.63,735.83,730.32,724.76,718.68,713.08,707.53,700.7,694.21,686.28,679.12,672.77,667.34,657.81,651.23,644.27,637.31,630.86,623.91,617.76,611.16,605.11,598.57,592.68,585.84,579.79,573.73,565.66,561.53,554.16,548.52,545.22,540.31,535.24,530.39,525.73,520.6,515.49,509.95,504.86,498.94,494,488.5,482.88,476.72,470.5,463.47,457.68,450.64,443.9,437.59,430.92,424.62,418.6,412.32,406.77,400.83,395.17,389.4,384.23,378.68,373.31,368.48,363.18,358.69,354.69,350.07,345.93,341.89,338.1,334.24,331.02,327.22,323.33,319.65,315.34,311.47,307.26,303.04,298.68,294.53,289.98,285.59,281.18,276.3,271.59,266.56,261.78,257.78,253.27,248.96,245.15,241.18,237.18,233.35,229.56,225.79,222.22,218.55,215.02,211.44,207.74,204.3,200.63,196.72,193.01,189.47,185.82,182.36,178.86,175.36,171.76,168.08,164.72,160.99,157.56,154.16,150.75,147.63,144.29,141.02,138.09,134.8,131.72,128.88,126.14,123.05,120.36,117.64,114.91,112.11,109.78,107.39,105,102.67,100.25,98.054,95.855,93.843,91.461,89.375,87.007,85.016,82.834,80.627,78.882,76.99,75.578,74.107
1.0753,1.1901,1.2494,1.2868,1.3695,1.4221,1.511,1.5791,1.6499,1.6622,1.7052,1.7667,1.8976,1.8923,1.9559,2.0135,2.0505,2.1297,2.1812,2.174,2.2922,2.2983,2.3713,2.3962,2.4049,2.4765,2.4819,2.5357,2.5294,2.6237,2.6525,2.7128,2.7812,2.8216,2.8881,2.9501,2.9801,3.0291,3.1182,3.2651,3.362,3.4799,3.6025,3.8365,4.1481,4.451,4.9717,5.4852,6.2141,7.1842,8.5507,9.9449,11.798,13.976,16.568,19.53,22.67,26.196,29.65,33.156,36.731,40.528,44.475,48.658,52.133,56.482,60.988,65.345,69.473,73.325,77.772,81.717,85.872,90.391,94.476,98.768,102.63,107,111.72,116.43,121.58,126.74,131.91,137.07,142.74,148.05,153.52,159.25,165.06,171.06,177.37,183.94,190.24,196.87,203.43,210.37,216.91,224.8,232.39,238.04,245.2,252.36,259.56,267.09,275.06,283.13,291.34,300.01,308.91,317.88,326.85,334.56,342.64,351.22,360.23,369.99,379.96,390.58,401.23,413.17,423.58,433.99,443.82,452.13,462.19,472.44,483.2,495.01,506.85,518.94,532.19,542.25,551.74,561.31,571.02,578.94,589.7,600.65,612.28,623.78,633.85,644.49,654.49,664.35,674.5,687.58,697.42,705.46,715.91,726.85,738.78,751.25,762.72,774.98,786.3,796.87,807.35,817.87,831.6,837.77,850.79,867.79,881.91,896.56,909.93,920.74,935.37,945.35,954.72,963.83,972.74,980.49,991.57,1002.7,1014.7,1028.2,1038.9,1049,1058,1066.3,1074.4,1086.6,1094.1,1095.8,1102.4,1109.8,1117.5,1125.1,1132.5,1140.1,1146.8,1154.5,1162.3,1169.4,1177.2,1178.5,1183.3,1193.8,1199.2,1204.8,1208.8,1222.4,1232.7,1243.6,1254.4,1265.1,1274.8,1278.7,1285.8,1292.1,1299.4,1306.6,1316.4,1328.1,1341.2,1362.4,1380.8,1398.1,1416.1,1427.3,1442.5,1456.7,1471.5,1485.2,1499.5,1513.9,1528.3,1544.3,1562.3,1585.2,1595.7,1610,1620.7,1631.2,1641.7,1651.6,1660.2,1670.1,1677.8,1685.7,1693.6,1697.2,1696,1698.7,1701.9,1705.4,1709.4,1714.7,1720,1732.8,1739.9,1751.1,1763.3,1774.8,1779.4,1786.2,1789.7,1791.4,1792.4,1789.1,1787.3,1785.8,1791.7,1794.3,1799.8,1804.6,1804.7,1812,1820.2,1828.5,1834.7,1840.4,1842.5,1841,1835.2,1830.4,1831.6,1826.9,1819.2,1818.6,1819.8,1824.5,1829.3,1834,1837.2,1839.6,1841.6,1845.2,1854.6,1848.7,1848.8,1845.9,1843.6,1843.2,1840.6,1839.8,1838.2,1835.8,1835.6,1838.7,1839,1839.1,1831.7,1829.8,1835.6,1834.6,1832.1,1830.3,1822.2,1828.4,1829.9,1832,1833.5,1835.1,1828.9,1829.3,1827.8,1824.4,1822.2,1818.3,1815.3,1810.3,1811.5,1806.9,1801.3,1798.4,1790.1,1788.8,1788.8,1790.6,1791.1,1791.5,1792.1,1789.2,1793.5,1789.5,1784.9,1777.5,1762.8,1752.7,1743.2,1736.4,1728,1721.6,1714.6,1707.3,1703.2,1709.5,1708.2,1707.8,1694.9,1699.6,1698.6,1698,1696,1691.1,1685.6,1678.9,1671.1,1666.8,1658.1,1648.5,1633.5,1628.8,1617.4,1601.7,1592,1591.2,1577.3,1575.7,1568.1,1562.5,1557,1544.9,1545.2,1538.2,1531.9,1525.5,1512.2,1511.1,1503.9,1495.8,1488.6,1483.9,1475.3,1462.8,1454.4,1445.7,1436.2,1427.6,1416.6,1405.9,1394.6,1387.6,1376.4,1364.2,1351.8,1336.9,1325.6,1315.4,1306.2,1297,1286.8,1280.1,1270,1261.6,1259.8,1253.3,1246,1233.6,1225.8,1217.3,1207.9,1197.6,1187.3,1175.6,1163.9,1150.9,1139.1,1131.7,1114.6,1099.3,1092,1081.2,1072,1061.8,1052.3,1043.3,1033.9,1025.2,1016.4,1009.3,1002.4,991.34,983.92,976.79,970.39,964.1,956.36,953.03,945.57,936.9,929.01,918.8,909.03,894.14,883.82,873.7,863.47,853.59,844.73,837.56,829.3,826.09,818.22,811.98,801.33,794.01,786.57,779.06,772.53,766.67,759.75,753.37,747.55,741.32,736.28,732.8,726.22,720.51,715.02,708.96,703.37,698.05,691.37,684.73,677.06,670.11,663.66,658.62,649.46,642.41,635.75,628.62,622.73,615.71,609.72,603.14,596.68,590.7,584.57,578.05,572.04,565.97,557.89,554.02,546.86,541.25,537.65,532.91,527.81,522.95,518.17,512.81,508.23,502.31,497.64,492.24,486.97,481.57,475.91,469.76,463.56,456.79,450.88,444.06,437.52,431.34,424.74,418.55,412.55,406.51,400.95,395.43,389.48,383.61,378.77,373.24,367.84,363.4,358.04,353.5,349.34,345.04,341.28,337.5,333.51,329.66,326.3,322.7,318.83,315.08,310.94,307.14,303.33,298.75,294.75,290.55,286.05,281.73,277.34,272.46,267.94,263.14,258.44,254.08,249.89,245.74,241.86,238.01,233.97,230.3,226.47,222.91,219.36,215.85,212.16,208.63,204.95,201.5,198.02,194.21,190.48,186.89,183.37,179.74,176.51,173.01,169.41,165.83,162.36,158.9,155.35,152.07,148.62,145.38,142.26,139.27,136.08,132.94,129.89,127.1,124.36,121.44,118.74,115.83,113.32,110.79,108.26,105.77,103.49,101.12,98.992,96.733,94.565,92.457,90.155,88.042,85.952,83.735,81.692,79.61,77.781,75.946,74.481,73.186
1.0656,1.1347,1.2428,1.3122,1.3622,1.4446,1.4658,1.5148,1.6015,1.6706,1.719,1.7898,1.8697,1.8951,1.9872,2.0544,2.121,2.1421,2.1969,2.2433,2.2575,2.2994,2.3964,2.4139,2.4252,2.4766,2.5178,2.5406,2.5915,2.624,2.6493,2.7622,2.8434,2.8901,2.8828,2.942,2.9769,3.1236,3.1426,3.2774,3.3958,3.5349,3.6611,3.8917,4.2092,4.5347,5.0025,5.5271,6.369,7.2728,8.6835,10.082,11.914,14.163,16.847,19.907,23.194,26.665,30.214,33.741,37.308,41.31,45.277,49.57,53.083,57.342,62.047,66.394,70.405,74.251,78.608,82.795,87.037,91.417,95.566,99.871,103.77,108.2,113.03,117.79,122.79,128.22,133.53,138.63,144.38,149.52,155.07,160.91,166.7,172.75,179.23,185.67,192.43,199.01,205.67,212.44,218.91,226.89,234.48,240.37,247.55,254.93,261.8,269.76,277.66,285.58,294.04,302.68,311.93,320.79,329.68,337.29,345.85,354.28,363.71,373.28,383.53,394.29,404.69,416.91,427.22,437.81,448.04,456.43,466.4,476.64,487.61,499.46,511.78,523.89,537.14,547.09,556.48,566.03,575.71,583.67,594.38,605.52,617.24,628.37,638.58,649.34,659.4,669.07,679.44,692.57,702.9,710.56,721.07,732.01,744.14,756.62,768.07,780.68,792.01,802.76,813.15,823.66,838.25,844.01,856.98,874.27,888.73,903.13,916.88,927.23,941.94,951.97,961.45,970.39,979.63,986.73,997.81,1009.3,1021,1034.8,1045.7,1055.6,1064.3,1072.8,1080.7,1092.8,1100.7,1102.5,1108.9,1116.2,1124.3,1131.7,1138.8,1146.5,1153.7,1160.9,1168.6,1175.9,1183.5,1185,1189.8,1200.8,1206.2,1211.9,1215.6,1229.4,1239.8,1250.3,1261.2,1272.1,1281.4,1285.1,1292,1298.6,1306.2,1313.5,1323.5,1335.3,1348.6,1369.6,1388.1,1405.9,1423.5,1435,1450.1,1464.6,1479.1,1492.3,1507.2,1521.6,1535.9,1551.9,1569.6,1593.5,1603.3,1617.6,1628.2,1638.7,1649.6,1659.1,1667.8,1677.8,1685.2,1693.5,1700.5,1704.5,1703.5,1706.1,1709.5,1712.7,1717.3,1722.2,1728,1740.5,1747.7,1758.5,1770.9,1782.5,1786.9,1793.8,1797,1799.2,1799.3,1796.8,1794.5,1793,1798.9,1801.7,1806.7,1811.6,1811.5,1818.9,1827.2,1835.7,1841.7,1846.8,1849.8,1847.8,1842,1836.9,1838.3,1833.5,1825.5,1825.6,1826.5,1830.9,1835.6,1840.3,1843.8,1845.6,1848.3,1851.3,1860.3,1855,1854.9,1852.4,1849.6,1849.3,1846.8,1845.9,1844.1,1842.5,1841.5,1844.4,1844.8,1845,1837.3,1836,1841.8,1840.8,1838.5,1836.9,1828.1,1834.9,1836,1838,1839.6,1841,1835.5,1835.7,1833.8,1830.4,1828.4,1824.1,1821.3,1816,1817.8,1812.7,1807.5,1804.5,1795.8,1794.6,1794.5,1796.2,1796.8,1797.4,1797.5,1795.1,1799.7,1796,1790.6,1784.1,1769,1758.8,1749.3,1742.2,1734.2,1727.7,1720.6,1713.6,1709.4,1715.6,1714.2,1713.7,1700.9,1706,1704.7,1704,1701.9,1697.2,1691.6,1684.5,1676.9,1672.4,1663.8,1653.9,1639.1,1633.9,1622.7,1607.2,1597.6,1596.7,1582.9,1580.8,1573.8,1568.3,1562.6,1550.2,1551.2,1544.2,1537.5,1531.5,1517.8,1516.8,1509.4,1500.9,1494,1489.1,1480.3,1467.8,1459.5,1450.8,1441.1,1432.1,1422,1411.2,1399.4,1392.6,1381,1368.9,1356.7,1341.8,1330.7,1320,1310.9,1301.5,1291.5,1284.2,1274.3,1266,1263.8,1257.7,1249.8,1237.5,1230.2,1221.5,1211.9,1201.9,1191.4,1179.9,1167.9,1154.6,1143.4,1135.5,1118.6,1103,1095.1,1085.2,1075.8,1065.6,1056.1,1047.1,1037.5,1029,1020.5,1013.3,1006.3,995.16,987.65,980.81,973.79,967.51,959.44,956.49,948.8,940.35,931.95,922.2,912.5,897.6,887.15,876.93,866.92,857.05,848.3,841,832.56,829.24,821.35,814.79,803.97,796.72,789.38,782.59,775.24,769.5,762.35,756.16,749.94,744.05,739.02,735.35,728.48,723.38,717.57,711.62,706.24,700.32,693.65,687.5,679.74,672.51,666.27,661.05,651.75,645.04,637.99,630.99,624.82,618.05,611.53,605.46,599.15,592.83,586.8,580.13,574.07,568.09,559.83,555.84,548.72,543.09,539.72,534.65,529.73,525.04,520.21,515.06,509.88,504.17,499.45,493.64,488.89,483.23,477.55,471.51,465.21,458.23,452.42,445.32,438.9,432.62,426.12,419.86,414.03,407.87,402.14,396.59,390.63,384.87,379.87,374.29,369.09,364.37,359.24,354.58,350.39,345.91,342.19,338.15,334.4,330.57,327.31,323.49,319.66,315.93,311.8,307.88,303.78,299.43,295.3,291.05,286.75,282.47,277.97,273.35,268.64,263.89,259.07,254.8,250.53,246.33,242.37,238.61,234.57,230.84,227.07,223.4,219.97,216.28,212.7,209.09,205.41,201.73,198.47,194.6,190.82,187.29,183.91,180.13,176.86,173.25,169.76,166.16,162.69,159.1,155.56,152.25,148.94,145.79,142.5,139.39,136.31,133.29,130.19,127.36,124.5,121.56,118.95,116.03,113.43,110.89,108.45,105.94,103.64,101.16,99.014,96.813,94.795,92.576,90.351,88.164,86.014,83.957,81.974,79.693,77.837,76.054,74.543,73.271
1.0727,1.1764,1.2598,1.3043,1.3688,1.4458,1.527,1.5647,1.6451,1.7131,1.7904,1.8067,1.8816,1.9549,1.9674,2.0352,2.1223,2.1499,2.197,2.2274,2.2917,2.3239,2.4191,2.4535,2.4524,2.4715,2.5172,2.5392,2.5809,2.6115,2.661,2.7319,2.823,2.8588,2.9348,2.9745,3.0077,3.1167,3.1372,3.2754,3.3458,3.4896,3.7128,3.891,4.2065,4.4647,4.9803,5.6225,6.4026,7.2831,8.7261,10.106,11.979,14.335,16.983,20.059,23.473,26.88,30.324,33.937,37.454,41.551,45.552,49.862,53.308,57.732,62.594,66.772,70.812,74.651,79.19,83.398,87.675,92.186,96.08,100.56,104.57,109.07,113.7,118.68,123.86,129.08,134.43,139.52,145.04,150.56,155.98,162,167.7,173.93,180.23,186.94,193.74,200.3,206.93,213.84,220.19,228.33,236,241.61,248.89,256.46,263.64,271.42,279.26,287.28,295.57,304.36,313.55,322.3,331.39,339.08,347.48,356.05,365.53,375.39,385.4,396.1,406.44,418.59,429,439.71,450.05,458.42,468.34,478.61,489.62,501.31,513.51,525.71,539.07,549.01,558.41,567.88,577.49,585.42,596.06,606.96,618.73,629.93,640.54,650.7,660.71,670.21,680.67,693.99,703.75,711.47,722.05,733.04,745.15,757.22,769.01,781.26,792.23,803.4,813.6,824.32,838.5,844.52,857.29,874.6,888.86,903.51,917.18,927.54,942.47,952.46,961.58,970.69,979.78,987.03,998.04,1009.4,1021.2,1034.8,1045.7,1056.5,1064.6,1073.6,1081.4,1093.8,1101.1,1102.8,1109.6,1116.7,1125,1132.4,1139.5,1147.4,1153.8,1161.8,1169.3,1176.7,1184.2,1185.7,1190.7,1201.2,1206.4,1212.6,1216.5,1229.9,1239.8,1251,1262,1272.6,1282,1286.2,1293,1299.3,1306.8,1313.7,1323.9,1335.3,1348.7,1369.4,1387.8,1405.3,1423.8,1434.5,1449.9,1464.3,1478.9,1492.6,1507.5,1521.3,1536.2,1551.7,1570,1593.7,1603.3,1618.2,1628.2,1638.6,1649.5,1659.5,1668,1677.9,1686,1693.6,1701.3,1705.5,1704.1,1707.1,1710.1,1713.7,1717.8,1722.6,1728.4,1740.7,1748.2,1759.1,1771.4,1783.1,1787.4,1794.3,1797.9,1799.8,1800.4,1797.7,1795.2,1794,1800.3,1802.7,1807.8,1812.3,1812.5,1820.1,1828,1836.5,1842.9,1848.5,1851,1849.3,1843.5,1838.7,1840,1835.1,1827.5,1826.8,1828.2,1832.4,1837.1,1841.7,1845,1847,1849.7,1852.8,1862.1,1856.6,1856.5,1854.1,1851.4,1851,1848.1,1847.5,1846.3,1843.6,1843.3,1845.8,1846.2,1846.1,1839.4,1837.3,1843.4,1842.7,1839.8,1837.9,1830.5,1836.2,1837.8,1839.7,1841.2,1842.8,1836.7,1836.7,1835.4,1832.2,1829.9,1825.4,1822.8,1817.6,1819.7,1814.4,1808.7,1805.9,1796.4,1795.1,1795.2,1797.4,1797.9,1798.4,1798.5,1796,1800.5,1796.8,1791.8,1785.2,1769.7,1759.8,1750.6,1743.3,1735.6,1728.8,1721.4,1714.4,1710.1,1716.8,1715.2,1714.2,1701.4,1706.1,1705.1,1704.6,1701.9,1697.8,1692.7,1685.8,1677.9,1673.5,1664.6,1654.7,1639.5,1634.6,1623,1608.2,1598.6,1597.4,1583.7,1581.5,1574,1569.2,1562.7,1551.3,1551.7,1543.9,1537.7,1531.9,1518.1,1516.9,1509.4,1501.6,1494.8,1489.1,1481.4,1468.1,1459.9,1451.6,1441.4,1432.6,1422.3,1411.2,1400.3,1393,1381.9,1369.7,1356.8,1342.3,1331.4,1320.9,1311.6,1302.2,1291.7,1285.4,1275.3,1267,1264.6,1258.5,1251.2,1238.8,1230.8,1222.3,1212.4,1202.8,1192.3,1180.4,1169,1155.4,1144.3,1136.3,1119.3,1104,1096.4,1085.6,1076.6,1066.7,1057,1048,1038.3,1029.7,1021.1,1014,1006.7,995.66,988.4,981.18,974.77,968.04,960.02,956.88,949.48,940.97,932.63,922.85,913.3,898.02,887.89,877.78,867.49,857.44,848.44,841.23,833.2,829.77,822.58,815.34,804.78,797.64,789.95,782.83,775.8,770.13,763.04,756.82,750.67,744.53,739.35,735.99,729.15,723.87,718.14,712.21,706.84,700.9,694.41,687.7,680.33,672.92,666.55,661.46,652.23,645.46,638.53,631.4,625.06,618.31,612.52,605.52,599.72,593.46,586.89,580.75,574.28,568.59,560.47,556.07,549.21,543.49,539.94,535.03,530.1,524.94,520.42,515.01,510.4,504.55,499.5,493.95,488.74,483.46,477.72,471.57,465.53,458.65,452.61,445.66,439,432.83,426.49,420.17,414.29,408.02,402.3,396.79,390.82,385.18,379.98,374.67,369.16,364.64,359.37,354.89,350.29,346,342.43,338.39,334.46,330.53,327.17,323.32,319.61,316.07,311.78,307.99,303.93,299.69,295.56,291.14,286.62,282.42,278.13,273.47,268.74,263.86,259.11,254.99,250.52,246.66,242.63,238.66,234.58,230.88,227.2,223.46,219.81,216.36,212.74,209.32,205.65,201.86,198.5,194.74,190.92,187.3,183.73,180.31,176.86,173.37,169.87,166.25,162.66,159.29,155.83,152.37,149.09,145.74,142.67,139.3,136.25,133.32,130.2,127.2,124.52,121.64,118.9,116.15,113.49,110.89,108.46,105.89,103.59,101.31,99.087,96.726,94.632,92.653,90.276,88.008,85.973,83.793,81.701,79.648,77.731,76.049,74.514,73.274
1.0566,1.167,1.2927,1.3705,1.395,1.4587,1.5275,1.6066,1.6576,1.68,1.7332,1.8492,1.8781,1.9216,1.9728,2.0562,2.06,2.1717,2.2229,2.199,2.2907,2.3527,2.3569,2.3765,2.4566,2.5207,2.4944,2.5624,2.5817,2.6589,2.712,2.71,2.8277,2.8988,2.9462,2.951,3.0235,3.1083,3.2076,3.3312,3.3917,3.5244,3.7753,3.964,4.1992,4.6604,5.1172,5.6797,6.5558,7.5232,8.949,10.336,12.444,14.635,17.59,20.749,24.006,27.673,31.314,34.778,38.541,42.458,46.725,51.148,54.821,59.176,63.989,68.337,72.538,76.466,80.846,85.138,89.505,93.988,98.302,102.65,106.76,111.11,116.13,120.91,126.4,131.65,137.24,142.46,147.93,153.61,159.2,165.31,171.07,177.19,183.98,190.71,197.56,204.37,210.92,217.72,224.21,232.68,240.41,246.21,253.47,261.2,268.49,276.49,284.48,292.64,301.24,310.09,319.43,328.7,338.08,345.35,354.04,363.13,372.83,382.97,393.03,403.99,414.17,426.73,437.49,448.4,459.01,467.35,477.46,487.97,499.21,510.98,524.04,536.25,549.58,559.37,569.3,578.9,588.71,596.89,607.89,618.74,630.26,641.62,652.26,662.71,673.26,683.18,693.73,706.83,717.47,725.01,735.54,746.69,758.72,771,782.63,795.57,807.08,818.16,828.8,839.95,854.22,859.95,872.96,890.62,905.41,920.26,934.39,944.69,960,970.02,979.22,988.34,997.66,1004.6,1015.7,1027.5,1039.9,1053.4,1064.9,1075.1,1084,1092.3,1100.7,1113,1120.6,1122.3,1128.7,1136.5,1144.6,1151.9,1159.1,1167.2,1174.2,1181.5,1189.1,1196.9,1204.7,1205.7,1211.1,1221.8,1227.6,1233.6,1236.9,1250.9,1261.2,1272.1,1282.9,1293.8,1303.6,1307.3,1314.6,1321,1328.8,1335.7,1346.2,1358.6,1371.1,1393,1411.4,1429,1447.7,1459.1,1474.5,1489.1,1503.9,1518.1,1532.7,1547.1,1562.2,1578.1,1596.7,1620.8,1630.3,1644.9,1655.8,1666.4,1677.3,1687.2,1696,1706.3,1714,1721.8,1729.6,1734,1731.9,1735.4,1738.4,1742.1,1746.4,1751.2,1757.3,1769.9,1777.4,1788.1,1800.6,1812.7,1816.8,1823.9,1827.7,1829.4,1829.8,1827.3,1825.5,1823.1,1829.4,1832.2,1837.5,1842.3,1842.1,1849.4,1857.9,1866.4,1873,1878.5,1880.9,1879.5,1873.4,1868.3,1870.1,1864.9,1856.9,1856.7,1857.8,1862.2,1867.3,1871.5,1874.6,1877.2,1879.3,1882.6,1892.5,1886.5,1886.8,1884.3,1881.8,1881.3,1878.8,1878,1876.8,1873.6,1873.5,1875.6,1876.2,1876.2,1868.9,1867.1,1873.2,1872.6,1869.7,1867.8,1859.5,1866.2,1867.7,1869.4,1870.7,1872.1,1866.3,1865.6,1864.7,1861.9,1859.6,1854.9,1852,1846.5,1848.6,1843.6,1837.7,1834.8,1824.5,1823.4,1823.1,1825.6,1826.1,1826,1826.6,1824.2,1829,1825.7,1820.4,1812.9,1797.9,1787.2,1778,1771,1763,1755.6,1748.4,1741.8,1737,1743.4,1741.6,1740.7,1727.6,1733.1,1731.9,1731.6,1728.4,1724,1718.8,1711.2,1703.8,1698.9,1690.1,1680,1664.7,1659.6,1648.1,1632.6,1623.2,1622.3,1608.5,1606.3,1598.7,1593.6,1587.2,1575.9,1575.8,1568,1561.8,1555.9,1542.4,1540.9,1532.5,1524.5,1517.2,1511.7,1503.8,1490.7,1482.6,1473.8,1463.7,1455,1444.5,1433.6,1422.1,1415.1,1403.7,1391.2,1378.6,1363.3,1351.8,1341.7,1332.2,1322.7,1312.2,1304.9,1294.8,1286.9,1283.8,1277.6,1270.4,1258.2,1249.7,1241.3,1231.5,1221.1,1210.4,1198.1,1186.3,1173.1,1161,1153.3,1135.6,1120.7,1112.8,1102.3,1092.7,1083,1072.7,1064.2,1054.6,1045.5,1036.9,1029.9,1022.3,1011.4,1003.5,996.13,989.37,982.75,975.16,971.7,964.12,955.39,946.83,937.07,927.32,912.58,901.91,891.36,880.65,870.67,861.48,854.15,845.72,842.29,834.36,827.83,816.64,809.63,801.86,794.56,787.3,781.35,774.27,768.19,761.69,755.37,750.08,746.86,739.82,734.61,728.45,722.58,717.31,711.26,704.59,697.65,690.14,682.93,676.2,671.08,661.79,655.04,648.06,640.93,634.32,627.53,621.18,614.63,608.52,602.19,595.91,589.38,582.93,576.84,568.7,564.36,557.46,551.58,548.07,543.34,538.41,533.34,528.64,523.42,518.59,512.46,507.36,501.59,496.47,490.62,485.17,478.92,472.64,465.61,459.57,452.51,445.78,439.3,432.81,426.54,420.28,414.26,408.18,402.72,396.72,391.02,385.82,380.35,375.09,369.94,364.83,360.28,355.92,351.63,347.37,343.45,339.56,335.7,332.21,328.39,324.5,320.59,316.38,312.8,308.53,304.13,299.96,295.51,291.01,286.81,282.21,277.4,272.79,267.79,262.96,258.7,254.27,250,246.09,242.27,238.2,234.18,230.48,226.68,223.29,219.54,215.91,212.24,208.75,205.04,201.45,197.74,193.75,190.19,186.66,183.04,179.73,176.01,172.5,168.75,165.25,161.64,158.06,154.59,151.37,147.99,144.76,141.71,138.48,135.4,132.32,129.29,126.39,123.51,120.77,117.85,115.29,112.58,110.25,107.73,105.22,102.96,100.52,98.424,96.2,94.09,91.712,89.491,87.24,85.216,82.992,80.913,78.981,77.283,75.652,74.392
