0.98167,1.064,1.1693,1.1569,1.2656,1.3178,1.3862,1.4819,1.5172,1.5713,1.6174,1.6777,1.7414,1.8215,1.8237,1.8102,1.9246,1.969,1.9835,2.0127,2.0669,2.1334,2.2154,2.2822,2.3083,2.3902,2.4291,2.5454,2.5074,2.6174,2.597,2.6586,2.7138,2.8383,2.8587,2.8897,2.9651,3.0208,3.1712,3.209,3.3145,3.4369,3.6039,3.7522,4.0488,4.3534,4.8154,5.3349,6.074,7.0316,8.2297,9.5062,11.183,13.367,15.874,18.693,21.828,25.184,28.819,32.298,35.753,39.434,43.44,47.521,50.964,55.005,59.608,63.754,67.868,71.656,75.98,79.997,84.266,88.573,92.418,96.614,100.47,104.85,109.31,113.98,118.7,123.71,128.82,133.88,139.41,144.68,149.88,155.26,160.98,166.92,172.97,179.19,185.51,191.65,198.39,205.4,211.6,219.1,226.45,232.3,239.29,246.13,253.04,260.62,268.17,276.25,284.46,292.84,301.47,309.91,318.75,326.47,334.35,342.81,351.05,360.4,369.91,380.26,390.49,402.58,412.47,422.53,431.84,439.58,449.06,459.03,469.61,480.99,492.36,504.02,516.79,526.64,536.39,546,555.47,563.23,573.69,584.32,595.72,607.1,617.3,627.46,637.32,646.31,656.06,668.55,678.23,685.51,695.23,705.6,716.89,728.53,739.33,751.36,761.6,771.46,780.93,790.65,803.77,809.12,821.04,837.06,850.01,863.33,875.59,885,898.74,908.46,917.54,926.16,935.01,942.32,952.53,963.61,974.97,987.97,997.76,1007.2,1015.4,1023.3,1031.2,1042.4,1049.9,1051.7,1058.1,1065.3,1072.7,1080.1,1086.6,1094,1100.8,1107.7,1115.5,1122.2,1129.5,1130.6,1135.4,1145.3,1150.5,1155.9,1159.6,1172.3,1182,1192,1202,1212.4,1221.6,1224.7,1231.6,1237.6,1244.6,1251.8,1261.3,1272.6,1284.4,1304.1,1321,1337.2,1354.3,1364.9,1379.2,1393,1406.6,1419.4,1433.8,1447.5,1461.5,1476.2,1493.1,1515.5,1524.3,1538.1,1548.4,1558.6,1568.9,1577.7,1586.2,1595.9,1603,1610.4,1617.1,1621.7,1620.3,1622.6,1625.4,1628.7,1632.9,1637.2,1642.3,1654.8,1661.5,1671.9,1683.7,1694.4,1698.7,1705,1708.3,1710.1,1710,1707.8,1705.6,1704.7,1709.8,1712.3,1717,1721.6,1721.8,1729.2,1736.8,1744.7,1750.2,1755.1,1757.7,1755.9,1750.5,1745.9,1747,1742.2,1734.9,1734.3,1735.4,1739.7,1744.2,1748.9,1751.7,1754,1755.7,1758.8,1767.5,1761.8,1762.3,1759,1756.1,1755.8,1753.3,1752.4,1750.8,1748.3,1747.6,1750.4,1750.8,1750.6,1744.2,1742,1747.4,1746.3,1743.6,1741.9,1733.9,1739.5,1741.1,1742.2,1744.1,1745.3,1739.9,1739.7,1738,1734.6,1732.2,1728.2,1726.1,1720.6,1722.2,1717.2,1711.9,1708.8,1700.3,1699,1698.4,1700.1,1700.6,1701,1701,1698.6,1703.2,1699.7,1694.5,1687.8,1673.3,1663.6,1654.8,1648.4,1640.8,1634.3,1627.6,1620.8,1617.2,1622.6,1621.8,1620.9,1609.5,1613.2,1612.1,1611.7,1609.2,1604.9,1599.7,1592.8,1585.4,1580.8,1572.3,1562.6,1547.8,1542.7,1531.4,1516.2,1507,1506.8,1493.2,1491.4,1484.6,1479.5,1473.9,1462.9,1463.4,1457.2,1450.7,1445.4,1431.8,1431.4,1423.9,1415.9,1409.3,1404.4,1396.3,1384,1376.5,1368.1,1358.8,1350.3,1340.4,1329.7,1318.9,1311.6,1301.6,1290.8,1279.3,1264.4,1253.8,1244.2,1235.4,1226.8,1217,1210.7,1201.1,1193.2,1190.9,1184.2,1177,1166.2,1159.4,1151.4,1142.2,1133.1,1123.3,1112.2,1101,1088.1,1077,1069.4,1052.4,1037.4,1030,1019.4,1010.1,1000.5,991.56,983.29,974.08,966.28,958.28,951.57,945.09,934.43,927.41,920.45,914.21,907.72,900.03,896.81,889.87,881.21,873.47,864.05,855.02,841.29,831.86,822.37,813.5,804.09,795.9,789.09,781.48,778.06,770.87,764.64,755.5,749.12,742.21,735.61,728.75,723.55,716.86,710.57,705.04,699.3,694.07,691.27,684.58,679.78,674.63,669.01,663.82,658.68,652.61,646.45,639.53,632.95,626.93,622.26,613.67,607.03,600.82,594.28,588.51,582.2,576.23,570.11,564.58,558.56,552.79,546.76,540.98,535.34,527.94,523.8,517.29,512.04,507.45,502.93,498.03,493.34,489.19,484.62,480.11,475.89,471.59,466.2,461.59,456.37,451.05,445.44,439.64,433.17,427.91,421.74,415.68,410.03,403.96,397.99,392.59,386.57,380.99,375.5,370.06,364.67,359.95,354.8,350.16,345.82,341.36,337.11,333.16,329.27,325.46,321.91,318.39,314.79,311.52,308,304.34,300.87,296.93,293.38,289.64,285.42,281.58,277.53,273.34,269.38,265.31,260.99,256.52,251.78,247.41,243.51,239.5,235.52,231.77,228.16,224.28,220.57,217.16,213.48,210.14,206.71,203.17,199.89,196.13,192.86,189.41,185.75,182.29,178.95,175.61,172.25,169.05,165.62,162.36,159.01,155.63,152.35,148.92,145.79,142.67,139.6,136.53,133.62,130.71,127.83,124.8,122.09,119.46,116.88,114.21,111.57,109.06,106.67,104.38,101.89,99.654,97.393,95.279,93.181,91.147,88.929,86.961,84.667,82.67,80.674,78.573,76.639,74.677,73.078,71.657,70.364
1.0388,1.1144,1.1554,1.2401,1.3144,1.3738,1.4406,1.5131,1.5859,1.6626,1.6724,1.7203,1.7608,1.8097,1.8744,1.9659,1.9632,1.9768,2.0608,2.0742,2.1631,2.2204,2.2788,2.3321,2.3835,2.4633,2.5017,2.5467,2.6074,2.6761,2.6862,2.7547,2.8252,2.891,2.9425,2.9693,3.0106,3.0725,3.1828,3.2369,3.3665,3.4812,3.6258,3.8926,4.1124,4.4286,4.9179,5.5356,6.2461,7.2785,8.5087,9.9428,11.791,13.968,16.788,19.689,23.03,26.495,30.123,33.748,37.286,41.295,45.319,49.763,53.231,57.53,62.247,66.527,70.875,74.721,78.96,83.35,87.656,92.21,96.259,100.69,104.69,109.11,114.03,118.86,124.02,129.32,134.58,139.76,145.31,150.72,156.25,162.09,167.89,174.05,180.6,187.26,194.04,200.68,207.22,214.12,220.54,228.68,236.3,242.16,249.29,257.09,264.19,272.13,280.37,288.38,296.87,305.98,315.25,324.31,333.46,341.03,349.67,358.38,367.82,377.8,388,398.77,408.99,421.46,431.8,442.39,452.68,460.87,471.01,481.19,492.44,504.19,516.61,528.95,542.32,552.21,562.13,571.88,581.86,589.95,601.25,612.46,624.48,635.56,646.38,657,667.4,677.1,687.6,700.76,710.42,718.31,728.62,739.42,751.39,763.13,774.47,786.81,797.66,808.21,818.42,829.2,843.04,848.75,861.19,878.48,892.68,907.16,920.59,930.98,945.64,955.38,964.82,973.57,983.05,990.16,1001.2,1012.5,1024.6,1037.9,1048.6,1058.8,1067.5,1075.8,1084.3,1096.2,1103.6,1105.3,1112.2,1119.2,1127.2,1134.4,1141.6,1149.4,1156.4,1163.6,1171.4,1178.6,1186.4,1187.5,1192.6,1203,1208.6,1214.4,1218.5,1232.1,1242.4,1252.8,1263.8,1274.3,1284,1287.8,1294.6,1301,1308.3,1315.2,1325.4,1337.4,1350.3,1371.6,1389.9,1407.4,1425.1,1436.5,1451.5,1466.4,1480.8,1494.7,1509.5,1523.1,1537.6,1553.6,1571.8,1594.7,1604.5,1619,1629.7,1639.8,1650.4,1660,1668.6,1679.2,1686.4,1693.8,1701.1,1705.3,1703.8,1706.2,1710,1713.4,1717.2,1721.7,1727.9,1740,1747.6,1758.5,1770.5,1781.9,1786.4,1793.6,1796.8,1798.6,1798.7,1796.3,1794.4,1792.3,1798.5,1801,1806.1,1811.2,1811.8,1818.7,1826.5,1834.9,1841.7,1846.5,1848.9,1847.5,1841.4,1836.5,1837.6,1832.6,1824.8,1824.7,1825.6,1830.2,1834.9,1839.4,1842.2,1844.7,1846.8,1850.2,1859.7,1853.1,1853.3,1850.3,1848,1846.9,1844.3,1843.7,1842.1,1839.2,1838.5,1841,1841.2,1841.1,1834.1,1832,1837.9,1836.5,1833.7,1831.9,1823.9,1830.3,1831.2,1833,1834.7,1835.5,1829.5,1829.4,1827.7,1824.4,1822.1,1817.8,1815.1,1809.9,1811.3,1806.2,1800.4,1797.6,1788.2,1786.7,1786.3,1788.8,1788.8,1789.2,1789.3,1786.7,1790.8,1787.6,1782.1,1775.2,1759.8,1749.2,1740.6,1733.1,1725.1,1718.3,1711,1704.3,1700.1,1706.2,1704.5,1703.7,1690.8,1695.5,1694.1,1693.7,1691.4,1686.6,1681.2,1674.1,1666.2,1661.6,1653.3,1643.1,1627.8,1623,1611.2,1596.1,1586.4,1585.5,1571.1,1569.1,1562,1556,1550.4,1538.7,1539,1531.5,1525.3,1519.1,1505.4,1504.7,1496.9,1488.8,1482.2,1476.4,1468.6,1455.4,1447.5,1438.8,1428.8,1420.1,1409.9,1398.7,1387.4,1380,1368.5,1356.6,1344.4,1329.9,1318.3,1308.1,1298.2,1289.4,1278.8,1272.4,1262.1,1253.7,1251.5,1245,1237.8,1225.2,1217.3,1208.9,1199,1189.4,1178.9,1167.1,1155.3,1142.2,1130.7,1123,1106,1090.6,1083,1072.2,1062.6,1052.4,1043.1,1033.9,1024.3,1015.9,1007.2,1000.3,993.12,982.33,974.54,967.42,961.11,954.86,946.83,943.63,936.14,927.35,919.23,908.91,899.58,884.51,874.52,864.47,854.54,844.74,836.11,828.73,820.7,817.44,809.88,803.5,792.77,785.77,778.73,771.93,764.88,759.36,751.88,746.12,740.12,734.28,728.93,725.65,718.81,713.64,708.24,701.99,697.25,691.35,684.87,678.32,670.78,664.08,657.54,652.79,643.66,637.12,630.19,623.68,617.55,610.9,604.87,598.58,592.24,586.51,580.38,573.97,567.87,562.42,554.39,550.41,543.67,537.99,534.35,529.53,524.78,519.77,514.87,510.08,505.44,499.96,495.29,489.89,484.89,479.51,473.95,468.04,461.98,455.33,449.62,442.74,436.36,430.3,423.82,417.89,412.03,405.82,400.21,394.56,388.91,383.24,378.09,372.95,367.62,362.94,357.96,353.34,349.31,344.91,341.36,337.59,333.61,330.02,326.6,322.85,319.18,315.78,311.51,307.76,303.8,299.28,295.49,291.29,286.56,282.49,278.23,273.22,268.8,263.82,259.02,254.69,250.68,246.51,242.68,238.75,234.63,231.03,227.24,223.6,220.02,216.52,212.96,209.38,205.82,202.18,198.49,194.9,191.2,187.5,184.18,180.54,177.3,173.72,170.24,166.63,163.08,159.56,155.94,152.76,149.48,146.31,142.96,139.87,136.9,133.86,130.83,128,125.16,122.24,119.65,116.75,114.18,111.49,109.13,106.69,104.32,101.98,99.675,97.521,95.169,93.135,90.95,88.755,86.513,84.356,82.33,80.115,78.263,76.535,74.989,73.65
1.045,1.1328,1.2094,1.2327,1.2728,1.3905,1.4542,1.5403,1.5858,1.5953,1.7163,1.7955,1.822,1.8681,1.9154,1.9281,1.9918,2.0374,2.112,2.1344,2.191,2.2563,2.3024,2.338,2.4185,2.4758,2.4777,2.6532,2.6617,2.741,2.7856,2.7702,2.8554,2.934,2.9797,3.0088,3.0599,3.1928,3.2203,3.3656,3.4663,3.5785,3.7437,3.9317,4.2533,4.5601,5.0644,5.6638,6.3848,7.4063,8.6413,10.103,11.845,14.206,16.958,19.913,23.243,26.786,30.324,33.959,37.604,41.606,45.583,49.883,53.48,57.907,62.649,67,71.282,75.075,79.721,83.983,88.044,92.693,96.917,101.24,105.39,109.89,114.76,119.74,124.66,130.24,135.54,140.94,146.47,151.77,157.31,163.31,169.16,175.41,181.94,188.59,195.2,202.14,208.6,215.59,222.24,230.13,237.99,243.76,251.14,258.82,266.34,274.15,282.13,290.69,299.21,308.32,317.62,326.92,336.24,343.71,352.34,361.29,370.89,380.95,391.3,402.22,412.34,424.77,435.32,446.08,456.57,464.82,475.05,485.74,497,508.74,521.59,533.85,547.32,557.58,567.48,577.23,587.52,595.77,607.1,618.43,630.37,641.97,652.83,663.68,674.07,684.25,694.88,707.93,718.26,726.12,736.69,747.38,759.57,771.63,783.09,795.41,806.89,817.64,828.29,838.7,852.91,859.11,872.09,889.37,904.04,918.86,933.3,943.14,958.15,968.39,977.57,986.57,995.98,1003.3,1014.5,1026,1038.1,1052.2,1063,1073.1,1082,1090.7,1099,1111,1118.8,1120.2,1127.1,1134.6,1142.7,1150.3,1157.5,1164.9,1172,1179.6,1187.3,1194.9,1202.5,1203.7,1208.9,1219.6,1225.2,1231.4,1235.1,1249.1,1259.4,1270,1281.2,1291.3,1301.5,1305.5,1312.1,1318.8,1326.6,1333.7,1343.8,1356.4,1369.3,1390.6,1409,1427.2,1445.3,1456.5,1472,1486.5,1501.3,1515,1530.3,1544.1,1558.8,1574.9,1593.6,1617,1626.7,1641.2,1651.6,1662.2,1673,1682.8,1691.4,1701.6,1709.3,1716.9,1724.6,1728.5,1727.3,1730.2,1733.8,1737.2,1741.1,1746,1752.1,1764.4,1771.8,1782.9,1795,1806.6,1811.3,1818.2,1821.4,1823.2,1823.7,1821,1819,1817,1823.5,1825.8,1831.1,1836.1,1836.3,1843.3,1852,1860.1,1866.6,1872.1,1874.9,1872.8,1867,1861.9,1862.8,1858.3,1850.6,1850,1851.1,1855.5,1860.8,1864.9,1867.9,1870.1,1873,1875.8,1885.4,1879,1879.6,1876.5,1873.6,1873,1870,1869,1867.9,1865.1,1864.4,1867.3,1867.3,1866.9,1859.5,1857.5,1863.3,1862.6,1859.5,1857.8,1849.4,1855.8,1857,1858.5,1859.8,1861.2,1854.8,1854.9,1853.3,1850.1,1847.8,1843,1840.3,1835.1,1837,1831.7,1825.6,1822.3,1813.2,1811.5,1811.3,1813.8,1813.6,1814.1,1814.3,1811.9,1816.4,1812.8,1807.5,1800.5,1785.1,1774.5,1765.3,1758.5,1750,1743.5,1735.5,1728.7,1724.5,1730.8,1729.1,1728.2,1715.2,1719.6,1718.5,1717.8,1715.3,1710.6,1705.1,1697.5,1690.2,1685.2,1676.3,1666.6,1651,1646,1634.3,1618.7,1609.2,1608.1,1594.5,1592.4,1584.9,1579.3,1573.2,1561.4,1561,1553.8,1547.2,1541.1,1527.5,1526.3,1518.7,1510.7,1503.2,1497.5,1489.5,1476.6,1468.2,1459.3,1449.4,1440.4,1429.7,1418.6,1407.3,1400.4,1388.9,1376.8,1364.3,1349,1337.8,1326.9,1317.3,1308,1297.7,1290.5,1280.1,1272.3,1269.7,1263.5,1255.5,1243.5,1235.1,1226.3,1217.1,1206.7,1195.8,1183.9,1171.9,1158.6,1147.2,1138.9,1121.8,1106.4,1098.6,1087.8,1078.3,1068.5,1058.5,1049.6,1039.8,1030.8,1022.4,1014.7,1007.8,997,988.96,981.86,975.35,968.69,961.06,957.86,950.32,941.64,933.01,923.02,913.37,898.37,888.12,877.96,867.51,857.68,848.48,841.38,833.13,829.57,822.1,815.22,804.48,797.23,789.75,782.75,776.02,769.84,762.91,756.96,750.59,744.63,739.44,736,729.31,724.25,718.37,712.44,707.22,701.16,694.56,687.86,680.75,673.61,667.02,662.07,653.15,646.33,639.01,632.34,626.16,619.42,613.44,607.11,600.82,594.6,588.6,582.12,576.17,570.39,562.14,557.75,551.36,545.47,542.04,537.46,532.4,527.5,522.95,517.74,513.27,507.43,502.35,496.9,491.86,486.54,480.77,474.81,468.49,461.91,455.9,449.09,442.44,436.07,429.58,423.5,417.36,411.43,405.46,400.11,394.29,388.49,383.27,377.82,372.54,367.92,362.8,358.06,353.79,349.63,345.81,341.98,338.08,334.36,330.84,327.14,323.5,319.76,315.42,311.55,307.66,303.27,299.27,294.91,290.45,286.22,281.61,276.74,272.21,267.27,262.41,258.17,253.78,249.53,245.74,241.78,237.77,233.86,230.2,226.4,222.96,219.22,215.6,211.99,208.42,204.83,201.32,197.52,193.63,190.09,186.5,182.9,179.55,176.03,172.43,168.68,165.37,161.88,158.2,154.85,151.43,148.35,145.04,141.92,138.83,135.56,132.73,129.8,126.98,123.93,121.34,118.41,115.74,113.16,110.63,108.17,105.75,103.28,100.98,98.801,96.533,94.476,92.16,89.91,87.753,85.525,83.407,81.292,79.279,77.593,75.84,74.654
1.0228,1.1322,1.224,1.251,1.3401,1.397,1.4632,1.5034,1.5962,1.6113,1.7123,1.7531,1.8287,1.8422,1.9136,2.004,1.9829,2.014,2.1211,2.1453,2.1668,2.221,2.2731,2.331,2.3793,2.435,2.4988,2.578,2.6272,2.6646,2.7253,2.819,2.8628,2.8852,2.9062,2.9559,3.0265,3.1334,3.1901,3.3257,3.3693,3.5078,3.7459,3.9311,4.2297,4.4769,5.0677,5.6396,6.3625,7.2712,8.6506,10.051,11.752,14.121,16.756,19.745,23.159,26.453,30.135,33.681,37.338,41.153,45.29,49.597,53.044,57.433,62.304,66.551,70.675,74.699,79.045,83.317,87.72,92.181,96.241,100.67,104.82,109.19,113.94,118.81,124.01,129.34,134.78,140.06,145.61,151.06,156.63,162.62,168.35,174.55,181.06,187.49,194.26,201.12,207.79,214.81,221.18,229.41,237.05,242.98,250.28,257.88,265.23,273.07,281.13,289.32,297.93,307.11,316.47,325.56,334.78,342.36,350.81,359.71,369.6,379.53,389.72,400.44,410.72,422.82,433.38,444.26,454.47,462.96,473.31,483.54,494.7,506.74,519.04,531.63,545.35,555.6,565.21,575.12,585.19,593.48,605.01,616.09,627.88,639.3,650.26,660.81,671.11,681.49,691.93,704.86,715.11,722.81,733.41,744.3,756.03,768.16,779.51,792.08,802.98,814.05,824.27,835.09,849.19,854.89,867.92,885.11,899.38,914.03,928.05,938.41,953.49,963.42,972.64,982.15,991.29,998.35,1009.3,1021.1,1033.2,1046.9,1058.2,1068.6,1077.4,1085.8,1094,1106.5,1113.8,1115.8,1122.4,1129.8,1138,1145.3,1152.4,1160.4,1167.1,1175.1,1182.4,1190.5,1197.9,1198.9,1204.4,1214.8,1220.3,1226.4,1230,1244,1254.3,1265.1,1276.1,1286.8,1296.3,1300.5,1307.1,1313.9,1321.6,1328.5,1338.7,1350.8,1363.9,1384.7,1403.5,1421.2,1439,1450.5,1465.4,1480.7,1495.2,1509.1,1523.8,1537.9,1552.4,1568.3,1586.8,1610.2,1620.2,1634.5,1645.3,1655.5,1666.4,1676.2,1684.4,1694.8,1702.5,1710.1,1717.6,1721.9,1720.5,1723,1726.9,1730,1733.9,1739,1744.7,1757.1,1765.1,1775.8,1788.1,1799.7,1803.8,1810.6,1814.6,1816.3,1816.7,1814.2,1812.3,1810.4,1816.5,1819.4,1824.9,1829.4,1829.4,1836.8,1844.7,1853.6,1860,1865,1867.8,1866.7,1860.2,1855.1,1857.1,1851.8,1844,1843.6,1844.9,1849.6,1854.5,1858.4,1861.7,1863.8,1866.1,1869.1,1878.6,1872.5,1873.3,1870.3,1867.3,1866.5,1864.2,1863.2,1861.9,1858.8,1858.8,1860.9,1861.1,1860.8,1853.2,1851.4,1857.5,1857.1,1853.8,1851.8,1843.5,1849.5,1851.2,1852.9,1854.4,1855.8,1849.8,1849.3,1847.8,1844.8,1842.6,1837.8,1835,1829.7,1831.6,1826.3,1820.6,1817.3,1807.7,1806.3,1806,1808.5,1808.9,1808.7,1809.3,1806.8,1811.6,1807.8,1802.7,1795.6,1780,1769.4,1760,1753.1,1745.3,1737.9,1730.8,1723.6,1719.1,1725.7,1724.3,1722.6,1709.9,1714.7,1713.4,1713.1,1710.4,1705.5,1700.2,1693,1685.5,1680.7,1671.6,1662,1646.7,1641.4,1630.2,1614.9,1605.1,1604.1,1589.8,1587.8,1580.5,1574.7,1568.7,1557,1557,1549.5,1543.4,1537.3,1523.3,1522.1,1514.4,1506.6,1499.2,1493.6,1485.9,1472.8,1464.8,1456,1446.2,1437.2,1426.4,1415.9,1404.1,1396.9,1385.8,1373.5,1361,1345.8,1334.4,1324.1,1314.7,1305.8,1295.2,1287.8,1277.8,1269.5,1267.4,1261.1,1253.1,1240.2,1232.6,1223.9,1214.1,1204.6,1193.5,1181.6,1169.8,1156.6,1144.9,1136.8,1119.8,1104.6,1096.5,1085.6,1076.7,1066.7,1056.6,1047.7,1038.2,1029.2,1020.7,1013.4,1006.2,994.93,987.6,980.05,973.57,966.96,959.12,955.8,948.57,939.66,931.23,921.14,911.81,896.85,886.57,876.04,865.84,856.1,847.27,840.12,831.7,828.42,820.83,813.89,803.38,796.58,788.75,781.59,774.71,768.96,761.71,755.85,749.66,743.53,738.26,734.89,728.12,722.86,716.87,711.28,705.95,700.21,693.46,686.96,679.57,672.55,666.25,661.07,651.99,645.23,638.31,631.47,625.11,618.43,612.34,605.9,599.89,593.77,587.41,581.05,574.87,569.24,561.11,556.87,550.27,544.62,541.14,536.55,531.38,526.45,521.83,516.59,512.08,506.02,501.33,495.74,490.94,485.41,479.55,473.64,467.42,460.52,454.71,447.83,441.23,434.99,428.58,422.38,416.9,410.65,404.78,399.16,393.37,387.64,382.29,377.21,371.74,366.91,361.71,357.42,353.2,348.78,344.84,340.97,337.15,333.47,330.13,326.43,322.55,318.99,314.74,311,306.9,302.64,298.53,294.06,289.74,285.48,280.93,276.29,271.66,266.7,261.91,257.56,253.18,249.05,245.15,241.12,237.16,233.53,229.83,226.15,222.5,218.79,215.05,211.6,207.91,204.44,200.85,197.07,193.21,189.77,185.95,182.56,179.14,175.57,172.21,168.44,164.89,161.43,157.95,154.52,151.16,147.96,144.75,141.63,138.44,135.27,132.4,129.25,126.47,123.61,120.84,118.15,115.54,112.91,110.47,108.03,105.64,103.12,100.88,98.567,96.403,94.241,91.895,89.623,87.404,85.39,83.193,81.023,79.179,77.421,75.836,74.487
1.0632,1.1514,1.2229,1.2833,1.3188,1.4042,1.5256,1.5532,1.6085,1.6631,1.7533,1.7954,1.8785,1.9291,1.9385,2.0299,2.1041,2.0627,2.1094,2.1331,2.1665,2.199,2.3103,2.3697,2.3988,2.4843,2.5485,2.6017,2.6942,2.691,2.7458,2.8098,2.9167,2.8823,3.0074,3.0015,3.0631,3.1806,3.1671,3.2949,3.427,3.5797,3.7427,3.914,4.2736,4.6406,5.1053,5.6126,6.4475,7.4584,8.7789,10.271,12.06,14.435,17.147,20.292,23.656,27.061,30.758,34.378,37.971,42.129,46.241,50.623,54.23,58.538,63.562,67.955,72.314,76.142,80.566,84.664,89.213,93.743,97.884,102.46,106.57,111.04,115.88,121.07,126.25,131.73,137.24,142.47,147.92,153.56,159.17,165.18,170.96,177.07,183.93,190.86,197.54,204.37,211.05,218.03,224.51,232.78,240.55,246.48,253.64,261.48,269,277.14,285.15,293.61,302.22,311.3,321.04,330.31,339.66,347.16,355.91,364.89,374.86,385.02,395.24,405.9,416.4,429.01,439.55,450.6,461.1,469.78,479.83,490.1,501.44,513.92,526.56,539.17,552.6,562.52,572.62,582.44,592.75,601.02,612.41,623.62,635.41,647.05,658.1,668.67,679.29,689.64,699.9,712.93,723.57,731.15,741.53,752.55,764.45,776.38,788,800.33,811.69,822.43,833.2,843.87,857.99,863.44,876.68,894.16,908.69,923.47,937.46,947.82,962.56,972.45,982.07,991,1000.1,1007.2,1018.5,1030.1,1042.2,1056.3,1067.2,1077.8,1086.4,1094.5,1102.8,1115.4,1123,1124.6,1131.2,1138.5,1146.8,1154.1,1161.5,1169.5,1176,1184,1191.7,1199.3,1207.2,1207.9,1213.5,1224.3,1230,1236,1239.7,1253.7,1263.8,1274.5,1285.5,1296.3,1305.9,1310.1,1316.6,1323.6,1331.3,1338.3,1349.1,1360.9,1374.1,1395.6,1413.9,1432,1450.3,1461.7,1476.9,1492.2,1506.5,1520.3,1535.6,1549.7,1564.6,1580.9,1599.1,1622.7,1632.4,1646.9,1658.1,1668.3,1679.6,1689.3,1697.3,1708.4,1715.5,1722.9,1730.5,1735.3,1733.4,1736.3,1739.8,1743,1746.9,1751.8,1758.1,1770.6,1778.1,1788.9,1801.3,1813.3,1817.6,1824.8,1828.2,1829.8,1830.5,1827.8,1825.8,1823.7,1829.6,1832.6,1838,1843.1,1843,1850.1,1858.3,1867.1,1872.9,1878.6,1881.2,1879.8,1874,1869.3,1870.4,1865.3,1857.4,1856.6,1858,1862.8,1867.9,1871.6,1874.7,1877.3,1879.9,1882.5,1892.6,1886.2,1886.9,1883.7,1880.6,1880.2,1877.9,1876.8,1875.2,1872.2,1871.6,1874.2,1874.1,1874.1,1866.4,1864.7,1870.7,1870.4,1866.7,1864.8,1856.4,1863,1864.3,1865.7,1867.4,1868.6,1862.7,1862.1,1860.8,1857.6,1855,1850.8,1847.8,1842.2,1844.1,1838.9,1833,1829.7,1819.7,1818.6,1818.4,1820.5,1821,1820.8,1821.6,1818.9,1823.8,1820,1814.6,1807.5,1792.4,1781.8,1772.2,1765.1,1757.4,1750.3,1742.8,1735.7,1731.1,1737.2,1735.5,1734.6,1721.8,1726.7,1725.4,1724.7,1721.8,1717.2,1711.8,1704.7,1697.3,1692.1,1683.1,1673.4,1657.6,1652.7,1641.4,1625.8,1616.3,1615.2,1601.5,1599.2,1591.7,1586.2,1580.1,1568.6,1568.3,1560.8,1554.3,1548.6,1534.7,1533.2,1525.7,1517.5,1510,1504.7,1496.6,1483.8,1475.1,1466.4,1456.6,1447.4,1437.4,1425.9,1414.4,1407.5,1396.1,1383.8,1371,1355.8,1344,1334.2,1324.5,1314.8,1304.5,1297.2,1287,1278.7,1276.3,1270,1262.5,1250,1241.7,1233.3,1223.2,1213.3,1202.4,1190,1178.7,1164.8,1153,1145.1,1127.6,1112.4,1104.8,1094,1084.4,1074.9,1065,1056.1,1046.1,1037.2,1028.3,1021.3,1013.8,1002.8,995.21,987.63,981.07,974.44,966.54,963.22,955.74,947.04,938.88,928.48,918.95,903.78,893.51,883.14,873.12,862.64,853.78,846.41,838.39,834.66,827.19,820.24,809.35,802.42,794.91,787.42,780.54,774.83,767.61,761.32,755.08,748.87,743.84,740.35,733.45,728.37,722.59,716.83,711.2,705.42,698.69,692.03,684.54,677.55,671.02,666.07,656.83,650.01,642.92,636.14,629.78,623.02,616.99,610.47,604.23,598.26,591.9,585.49,579.35,573.48,565.51,561.03,554.38,548.9,545.36,540.6,535.24,530.76,525.79,521.01,516.21,510.29,505.2,499.82,494.61,488.83,483.04,477.02,470.97,464.26,458.28,451.34,444.81,438.34,431.96,425.62,419.74,413.45,407.81,402.14,396.5,390.53,385.63,380.04,374.79,369.86,364.75,360.29,355.9,351.59,347.57,343.52,339.69,335.89,332.46,328.75,324.92,321.37,317.19,313.46,309.45,304.94,300.91,296.62,291.95,287.7,283.11,278.41,273.55,268.92,263.86,259.42,254.98,250.81,247.12,243.02,239,235.21,231.4,227.64,224.06,220.26,216.79,213.42,209.56,205.91,202.32,198.51,194.83,191.08,187.46,183.96,180.48,176.81,173.29,169.69,166.16,162.69,159.22,155.63,152.38,148.96,145.79,142.73,139.57,136.31,133.35,130.38,127.62,124.7,121.84,119.13,116.33,113.68,111.22,108.68,106.31,104.04,101.64,99.411,97.14,94.878,92.778,90.419,88.251,86.097,83.924,81.866,79.842,78.178,76.452,75.178
1.0253,1.1126,1.1986,1.2494,1.3103,1.3462,1.4879,1.477,1.5899,1.6513,1.7019,1.7237,1.8235,1.8861,1.9233,2.0184,2.0243,2.054,2.0728,2.2237,2.1778,2.2035,2.2799,2.2824,2.3356,2.4632,2.431,2.4999,2.5574,2.6026,2.7071,2.7436,2.7694,2.8346,2.8897,2.9597,2.9959,3.084,3.1319,3.2876,3.3631,3.5378,3.6537,3.7901,4.1274,4.4657,4.9298,5.461,6.1936,7.131,8.3634,9.6821,11.583,13.589,16.238,19.11,22.294,25.877,29.21,32.885,36.235,40.1,44,48.249,51.805,56.015,60.594,64.788,68.979,72.881,77.232,81.406,85.646,90.001,94.051,98.409,102.43,106.75,111.34,116.19,121.26,126.46,131.6,136.83,142.46,147.79,153.2,158.78,164.72,170.65,177.06,183.64,189.96,196.36,203.02,210.14,216.49,224.34,232.03,237.84,244.9,252.33,259.49,267.32,275.2,283.1,291.58,300.47,309.81,318.45,327.58,335.08,343.52,352.19,361.1,370.91,380.97,391.58,402.03,414.13,424.53,434.74,444.7,452.86,463.1,473.09,484.26,496,508.02,520.29,533.64,543.54,553.47,562.99,572.79,581.15,592.25,603.23,615.26,626.56,636.89,647.51,657.79,667.41,677.74,690.58,700.74,708.33,718.63,729.52,741.17,753.19,764.32,776.68,787.43,797.97,808.23,818.17,832.29,837.95,850.58,867.68,881.46,895.79,909.18,919.42,934.16,944.02,953.25,962.26,971.52,978.97,989.81,1001,1012.9,1026.6,1037.1,1046.9,1055.7,1064.3,1072.7,1084.6,1092.3,1094.2,1100.7,1107.9,1115.8,1123.4,1130.8,1138.4,1145.2,1152.6,1160.2,1167.7,1175.5,1176.9,1181.5,1192.4,1197.9,1203.6,1207.4,1221,1231.5,1241.8,1253,1263.3,1273.2,1277.1,1283.9,1290.1,1297.6,1304.9,1314.7,1326.7,1339.4,1360.6,1379.1,1396.5,1414.9,1426,1440.8,1455.5,1470,1483.5,1498.4,1512.5,1526.9,1542.3,1560.8,1583.9,1593.6,1608.1,1618.4,1629,1639.5,1649.2,1657.6,1668.3,1675.6,1683.4,1690.9,1695.4,1693.2,1696.4,1699.2,1702.9,1707.2,1711.8,1717.7,1729.9,1737.9,1748.2,1760.8,1772.3,1776.8,1783.7,1787,1788.7,1789.1,1786.5,1784.2,1783.1,1789.3,1792.1,1797,1801.7,1801.9,1809.8,1817.6,1826.3,1832.2,1837.3,1839.8,1838,1832.4,1827.6,1829.3,1824.2,1816.6,1816.2,1817.5,1822,1826.9,1831.6,1834.7,1836.7,1839.1,1842.2,1851.7,1845.6,1845.6,1843,1839.5,1839.7,1837.3,1836.2,1834.5,1832.1,1831.9,1834.6,1834.6,1834.8,1827.5,1825.9,1831.5,1830.8,1828.2,1826.1,1817.8,1824,1825.1,1827.3,1828.7,1830.4,1824.7,1824.5,1822.8,1819.4,1817.4,1813,1810.6,1805.1,1806.7,1801.6,1796.1,1793.2,1785,1783.7,1783.3,1785.3,1786,1786.5,1786.6,1784,1788.3,1784.4,1779.2,1772.6,1757.7,1747.6,1738,1731.3,1723.3,1716.3,1709.2,1702,1698.2,1704.7,1702.9,1702.7,1690,1694.7,1693.6,1692.8,1690.6,1685.6,1680.4,1673.5,1666.1,1661.5,1652.9,1643.2,1628.3,1622.7,1611.8,1596.3,1586.6,1585.7,1571.9,1570.2,1562.7,1557.1,1551.5,1539.5,1540.6,1533,1526.9,1520.8,1507.5,1506.4,1498.4,1490.3,1484.1,1478.7,1470.5,1458,1449.5,1441.2,1431,1422.3,1412.3,1401.1,1390.1,1382.6,1371.7,1359.6,1347.1,1332.5,1321.3,1311,1301.6,1292.5,1282.6,1275.5,1265.7,1257.3,1255.4,1248.8,1241.3,1229.3,1221.1,1213,1203.6,1193.5,1182.8,1171.1,1159.7,1146.2,1135,1126.9,1110.2,1094.6,1087.3,1076.7,1067.2,1057.3,1047.7,1038.8,1029.4,1020.6,1012.4,1005.3,998.16,987.19,979.76,972.48,966.22,959.77,952.09,948.7,941.27,932.5,924.61,914.45,904.77,889.73,879.78,869.49,859.39,849.78,841.14,833.7,825.74,822.27,814.55,808.37,797.28,790.45,783.25,776.18,769.29,763.46,756.59,749.98,744.17,738.41,733.11,729.74,722.9,717.66,712.12,706.3,700.8,694.96,688.14,681.9,674.49,667.24,660.96,655.77,646.71,639.7,632.95,626.48,620.13,613.4,607.4,600.67,594.64,588.37,582.44,575.74,569.81,563.91,555.82,551.75,544.89,539.28,535.66,530.91,525.74,520.87,516.08,510.9,506.3,500.94,496.09,490.32,485.64,480.14,474.46,468.56,462.16,455.56,449.67,442.88,436.31,430.24,423.45,417.41,411.75,405.67,399.87,394.34,388.47,382.63,377.62,372.06,366.86,362.2,357.27,352.67,348.69,344.25,340.54,336.52,332.76,328.91,325.62,322.02,318.21,314.58,310.36,306.71,302.85,298.26,294.28,289.97,285.61,281.41,277.05,272.37,267.69,262.73,258.1,253.81,249.61,245.56,241.64,237.81,233.72,230.25,226.54,222.73,219.24,215.45,211.95,208.38,204.84,201.39,197.62,194.08,190.3,186.85,183.38,179.8,176.5,172.68,169.44,165.81,162.2,158.64,155.33,152.19,148.8,145.65,142.36,139.4,136.16,133.1,130.15,127.28,124.64,121.66,118.9,116.16,113.48,110.93,108.45,106,103.69,101.47,99.07,96.918,94.664,92.638,90.35,88.153,85.956,83.968,81.813,79.659,77.908,76.066,74.403,73.225
1.0657,1.1422,1.2059,1.3516,1.3676,1.4404,1.4894,1.5443,1.6156,1.6183,1.762,1.7676,1.8602,1.8789,1.9757,1.9928,2.0242,2.1201,2.0869,2.2228,2.207,2.2318,2.2537,2.2896,2.3792,2.4368,2.3992,2.4949,2.6515,2.6315,2.7375,2.8059,2.8051,2.8862,2.9401,3.0213,3.0097,3.1224,3.1508,3.2527,3.3887,3.5289,3.6358,3.8403,4.1087,4.4474,4.9483,5.5047,6.2028,7.132,8.3644,9.7011,11.559,13.703,16.316,19.298,22.566,25.945,29.438,32.973,36.472,40.336,44.343,48.514,52.079,56.162,60.849,65.109,69.277,73.131,77.621,81.685,86.015,90.439,94.656,99.003,102.94,107.31,112.12,116.87,121.89,127.19,132.42,137.57,143.14,148.41,154.14,159.89,165.75,171.71,178.07,184.72,191.32,197.74,204.37,211.26,217.95,225.81,233.6,239.42,246.52,253.99,261.16,269,277.03,285.22,293.55,302.65,311.73,320.56,329.79,337.68,346.01,354.52,363.95,373.83,384.08,394.81,405.08,417.24,427.67,438.28,448.15,456.7,466.64,476.78,488,499.97,512.01,524.52,537.77,547.85,557.85,567.42,577.42,585.55,596.93,608.08,619.93,631.35,641.84,652.85,663.11,672.7,682.98,696.38,706.2,714.23,724.38,734.91,747.12,759.05,770.77,782.79,793.8,804.65,814.61,825.17,838.94,844.74,857.88,874.98,888.9,903.57,917.06,927.49,942.28,952.4,961.65,970.75,979.85,987.24,998.31,1009.9,1021.7,1035.4,1046.3,1056.1,1065.1,1073.5,1081.7,1093.9,1101.7,1103.7,1110.2,1117.7,1125.5,1132.9,1140.2,1147.9,1155.1,1162.7,1170.5,1177.7,1185.7,1186.9,1192.4,1202.5,1208.4,1214.2,1218.1,1231.6,1242,1252.7,1263.9,1274.1,1283.9,1287.5,1295.1,1301.5,1309.1,1316.1,1326.4,1338,1351.4,1372.3,1391,1408.6,1426.6,1437.9,1453,1467.7,1482.4,1496,1511,1525.2,1539.6,1555.7,1573.5,1596.9,1606.6,1621.1,1631.7,1642,1653.2,1662.6,1671.5,1681.5,1689.1,1696.7,1704.2,1708.9,1706.8,1709.7,1713,1717,1720.9,1725.7,1731.4,1744.5,1751.6,1762.3,1774.7,1786.6,1791.1,1797.5,1801.7,1803.1,1803.6,1801,1798.9,1797.3,1803.3,1806.2,1811.2,1816.1,1817,1824,1832.7,1840.9,1847.1,1852.5,1854.8,1853.1,1847.6,1842.4,1844,1838.9,1831.4,1830.8,1832.3,1837,1841.9,1846.2,1849.1,1851.4,1853.9,1857.4,1866.6,1860.9,1860.9,1857.7,1855.3,1854.7,1852.2,1851.4,1850,1847.2,1846.7,1849.2,1849.6,1850,1842.5,1840.7,1846.6,1845.4,1842.7,1841.6,1832.8,1839.5,1840.6,1842.6,1843.8,1845.1,1839.3,1839.2,1837.7,1834.4,1832.2,1827.8,1825.4,1820,1821.6,1816.5,1811,1808.3,1799.3,1797.9,1797.3,1799.5,1800.5,1800.7,1801,1798.1,1802.9,1799.5,1794.2,1787.1,1771.8,1761.9,1753.1,1745.9,1737.6,1731,1723.5,1716.6,1712.4,1718.6,1717.5,1716.7,1703.9,1708.7,1707.9,1707.4,1704.5,1699.5,1694.3,1687.2,1679.7,1675.2,1666.2,1656.3,1641.4,1636.3,1625.3,1609.4,1600,1599.2,1585.2,1583.5,1576,1570.5,1564.7,1552.9,1553.1,1545.9,1539.9,1533.7,1520.1,1519,1511,1503.3,1496.3,1490.5,1482.4,1469.7,1461.3,1452.8,1443.3,1434.1,1423.7,1412.9,1401.9,1394.3,1383.2,1371.4,1358.3,1343.7,1332.3,1321.6,1312.4,1303.3,1293.2,1286.1,1275.9,1267.8,1265.5,1259.2,1251.7,1239.2,1231.4,1223.1,1213,1203.2,1192.5,1180.5,1168.8,1155.5,1144,1136.3,1119.4,1104.1,1096.3,1085.7,1076,1066.6,1056.7,1047.7,1038.3,1029.8,1021,1014,1006.7,995.67,988.02,981.3,974.5,967.99,959.96,956.66,949.33,940.64,932.17,922.19,912.41,897.75,887.53,877.3,866.88,857.27,848.33,840.82,832.79,829.21,821.73,815.12,804.23,797.12,789.59,782.67,775.6,769.78,762.71,756.51,750.14,743.97,739.13,735.73,728.7,723.6,718.04,712,706.75,701.04,694.27,687.65,680.12,673.13,666.54,661.56,652.21,645.33,638.24,631.42,625.29,618.56,612.09,605.94,599.69,593.46,587.48,580.87,574.74,568.67,560.43,556.59,549.41,543.8,540.38,535.6,530.8,525.63,521.03,516.01,511.01,505.32,500.33,494.74,489.75,484.24,478.4,472.33,466.19,459.4,453.56,446.63,440.03,433.65,427.17,421.07,415.12,409.15,403.2,397.74,391.77,386.13,380.9,375.38,370.21,365.41,360.26,355.71,351.51,347.01,343.43,339.5,335.53,331.68,328.32,324.73,320.95,317.39,313.02,309.09,305.42,300.88,296.83,292.61,288.17,283.97,279.48,274.7,270.05,264.94,260.17,255.72,251.61,247.56,243.79,239.88,235.68,232,228.33,224.55,221,217.3,213.81,210.22,206.63,203.08,199.44,195.85,191.99,188.4,185.07,181.42,177.91,174.41,170.87,167.29,163.84,160.26,156.59,153.3,150.06,146.78,143.6,140.36,137.4,134.29,131.27,128.43,125.56,122.65,119.89,117.12,114.47,111.91,109.49,106.97,104.61,102.27,99.982,97.637,95.566,93.497,91.177,88.929,86.885,84.668,82.534,80.411,78.533,76.908,75.217,73.907
1.0197,1.1441,1.2459,1.2937,1.347,1.4358,1.4736,1.5123,1.586,1.6574,1.6795,1.7806,1.8667,1.8576,1.9286,1.9854,2.0708,2.1183,2.1391,2.2301,2.2215,2.2865,2.3294,2.3354,2.3342,2.4488,2.4902,2.5468,2.6039,2.6432,2.7038,2.7381,2.8555,2.8774,2.8842,2.981,3.0642,3.0897,3.183,3.2522,3.4175,3.5308,3.7281,3.8886,4.2077,4.4908,4.9591,5.532,6.3497,7.1481,8.5488,9.8484,11.748,13.896,16.656,19.65,22.924,26.245,29.87,33.366,36.991,40.802,44.894,49.055,52.608,56.949,61.69,66.061,70.26,74.035,78.607,82.742,86.884,91.594,95.648,100.13,104.16,108.63,113.23,118.26,123.33,128.63,133.91,139.21,144.79,150.33,155.67,161.69,167.45,173.52,179.97,186.64,193.3,199.94,206.55,213.63,219.97,228.01,235.73,241.69,248.87,256.49,263.85,271.68,279.86,287.73,296.44,305.5,314.61,323.84,333.03,340.53,349.05,358.11,367.29,377.31,387.45,398.21,408.67,420.92,431.21,442,452.17,460.55,470.65,481.08,492.12,503.89,516.58,528.84,542.38,552.15,562.19,571.77,582.11,590.32,601.31,612.85,624.96,636.55,646.81,657.37,667.85,678.06,688.6,701.28,711.74,719.28,729.98,740.7,752.64,764.76,776.28,788.35,799.4,810.35,820.34,831.09,845.39,851.23,864.25,881.18,895.9,910.47,924.41,934.46,949.27,959.46,968.46,977.86,986.93,994.15,1005.4,1016.7,1028.6,1042.4,1053.5,1063.9,1072.9,1080.8,1089.3,1101.5,1109.5,1110.9,1117.4,1124.8,1133.2,1140.6,1148,1155.4,1162.4,1170.1,1178.2,1185.5,1193.1,1194.5,1199.6,1210.3,1215.8,1221.7,1225.3,1239.5,1249.9,1260.4,1271.5,1282.2,1291.8,1295.9,1302.7,1309,1316.7,1324.1,1334.2,1346.4,1359,1381,1399.4,1417.3,1435,1446.6,1461.7,1476.4,1491.1,1504.8,1519.9,1533.8,1548.8,1564.8,1582.9,1606.5,1616,1630.9,1641.5,1652.4,1662.3,1672,1680.7,1691.1,1698.8,1706.7,1714,1718.2,1717.3,1719.7,1723.1,1726.4,1730.5,1735.4,1741.4,1753.8,1761.6,1772.6,1785.1,1796.3,1801,1808.3,1811.5,1813.7,1814,1811.4,1809.2,1807.7,1813.8,1816.7,1821.6,1826.8,1827.1,1834.4,1842.9,1851.4,1857.3,1862.7,1865.2,1863.6,1857.4,1853.3,1854.3,1849.4,1841.7,1841.7,1842.7,1847.6,1851.9,1856.7,1859.6,1862.3,1864.5,1867.9,1877.3,1871.1,1871.4,1868.5,1865.8,1865,1862.7,1861.3,1860.1,1857.3,1857,1859.6,1859.8,1859.5,1852.6,1850.6,1857.1,1855.6,1852.6,1851.6,1842.7,1849.3,1850.8,1852.1,1854,1855.3,1849.1,1848.8,1847.5,1843.9,1841.5,1837.6,1834.6,1829.2,1831.5,1826.6,1820.5,1817.7,1808.6,1807.4,1806.9,1808.7,1809.2,1809.7,1810.4,1807.5,1812.2,1808.3,1803,1796.4,1780.9,1770.6,1761.4,1754.4,1746.6,1739.4,1732,1725,1721.1,1727.3,1725.8,1725.2,1712,1717,1715.9,1715.2,1712.4,1708.1,1702.7,1695.6,1688,1683.1,1674.3,1664.1,1648.7,1644.4,1632.9,1617.3,1607.7,1607.2,1593.1,1591.2,1583.6,1578.4,1572.6,1560.4,1560.6,1553.4,1546.9,1540.9,1527.1,1525.7,1518.8,1510.4,1502.9,1497.8,1489.7,1477,1468.9,1459.9,1450.4,1441.2,1430.7,1419.4,1408.4,1401.3,1389.8,1377.5,1365.4,1350.4,1338.9,1328.4,1318.7,1309.5,1299.1,1292.2,1282,1273.6,1271.2,1265.1,1257.7,1245.2,1237.3,1228.6,1219.2,1208.6,1198.3,1186.1,1174.4,1161.3,1149.7,1141.3,1124.9,1109.1,1101.4,1090.8,1081.2,1071.5,1061.7,1052.5,1043.2,1034.8,1025.9,1018.6,1011.4,1000.3,992.96,985.7,978.9,972.51,964.7,961.32,953.93,945.07,936.98,926.83,916.99,901.94,891.47,881.49,870.96,861.22,852.01,844.66,836.82,833.18,825.5,818.77,807.82,800.65,793.35,785.81,778.98,773.19,765.88,759.79,753.74,747.6,742.47,739.1,732.27,727.12,720.76,715.16,709.78,703.8,697.06,690.59,683.04,676.13,669.38,664.31,654.98,648.25,641.03,634.3,627.96,621.18,614.99,608.35,602.23,595.99,590.1,583.37,577.1,571.13,563.1,558.95,551.78,546.07,542.76,538.06,533.07,527.92,523.31,518.16,513.49,507.6,502.55,496.91,491.67,486.22,480.57,474.63,468.25,461.36,455.4,448.41,441.84,435.51,428.85,422.64,416.8,410.5,404.74,399.15,393.31,387.66,382.68,377.02,371.61,367,361.9,357.13,352.99,348.47,344.63,340.71,336.94,333.06,329.69,326.15,322.03,318.38,314.35,310.63,306.62,302.21,298.06,293.73,289.17,285.11,280.49,275.58,271.04,266.11,261.32,256.94,252.6,248.49,244.55,240.77,236.63,232.92,229.21,225.43,222,218.35,214.58,211.15,207.41,203.85,200.15,196.57,192.77,189.21,185.46,182.07,178.57,174.98,171.62,167.79,164.49,160.89,157.43,154.05,150.57,147.38,144.05,141.02,137.98,134.78,131.78,128.93,125.96,123.17,120.34,117.64,114.96,112.44,109.9,107.33,104.82,102.66,100.33,98.084,95.999,93.736,91.5,89.292,87.15,84.811,82.754,80.725,78.807,77.118,75.456,74.185
1.0063,1.1454,1.2305,1.3047,1.3682,1.3871,1.5162,1.5249,1.6581,1.6708,1.7285,1.8126,1.8361,1.9205,1.9542,1.9947,2.0801,2.1187,2.1553,2.2385,2.2632,2.2305,2.3191,2.3925,2.3604,2.4056,2.4565,2.5387,2.5854,2.615,2.6808,2.7294,2.8134,2.8498,2.9033,2.9344,2.9961,3.1272,3.1577,3.2379,3.4242,3.51,3.6588,3.8563,4.154,4.4437,4.9017,5.5009,6.2962,7.2022,8.4975,9.8756,11.662,13.903,16.6,19.596,22.759,26.307,29.853,33.415,36.941,40.843,44.959,49.049,52.657,57.04,61.691,65.909,70.221,73.87,78.41,82.616,86.943,91.336,95.514,99.785,103.98,108.43,113.08,118.2,123.04,128.36,133.66,138.87,144.58,150.06,155.45,161.18,167.23,173.1,179.68,186.2,192.9,199.64,206.22,213.17,219.48,227.64,235.18,241.15,248.36,255.92,263.14,270.8,279.02,287.3,295.73,304.69,313.84,323.01,332.1,339.7,348.28,357,366.39,376.56,386.63,397.39,407.69,420.06,430.35,441.03,451.14,459.62,469.66,479.91,491.21,503.14,515.64,527.94,541.25,551.49,561.24,571.11,581.08,589.28,600.55,611.87,623.72,635.29,645.75,656.59,667.22,677.11,687.54,700.77,711.13,718.78,729.38,740.16,752.28,764.27,775.9,788.26,799.32,810.09,820.32,831.18,845.83,851.17,864.2,881.41,895.77,910.66,924.32,934.66,949.37,959.6,968.93,977.97,986.91,994.45,1005.5,1017.1,1029.2,1043,1053.5,1063.9,1072.8,1081.2,1089.5,1101.7,1109.5,1110.9,1117.7,1124.9,1133,1140.5,1147.8,1155.7,1162.5,1170.1,1178,1185.4,1192.9,1194.6,1199.3,1210,1215.6,1221.7,1225.5,1239.4,1250.2,1260.6,1271.7,1282.3,1291.8,1295.8,1302.7,1309.3,1316.7,1323.9,1334.3,1346.3,1359.6,1381.3,1399.7,1417.3,1435.4,1446.7,1461.8,1476.6,1491.3,1504.5,1519.6,1533.9,1548.5,1564.7,1582.8,1606.3,1615.3,1630.5,1641,1651.6,1662.6,1671.6,1680.5,1690.5,1698.2,1706.1,1713.5,1718,1716.2,1719,1722.4,1725.6,1730.1,1735.2,1740.9,1753.3,1760.9,1771.9,1784.5,1796.2,1800.4,1807.6,1810.8,1812.5,1813,1810.7,1808.5,1806.7,1813.1,1815.6,1820.9,1825.6,1825.9,1833.4,1841.8,1850.3,1856.7,1862,1864.5,1862.6,1856.8,1851.8,1853.2,1848.5,1840.4,1840.5,1841.5,1846,1851.1,1855.4,1859.2,1860.8,1863.4,1867.1,1876.3,1870,1870.3,1867.6,1864.5,1864.1,1861.6,1860.6,1859.2,1856.1,1855.5,1858.7,1859,1858.9,1851.4,1849.6,1855.6,1854.4,1851.9,1850.3,1841.2,1848.1,1849.2,1851,1852.6,1854,1848.3,1848,1846.7,1843.1,1840.4,1836.5,1833.8,1828.4,1830.1,1825.1,1819.8,1816.7,1807.8,1806.5,1806.2,1808.6,1809,1809.3,1809.4,1806.9,1811.4,1807.9,1802.4,1795.6,1780.6,1769.8,1760.9,1753.5,1745.5,1738.9,1731.8,1724.2,1720.6,1726.7,1725.3,1724.8,1711.3,1716.5,1715.3,1714.8,1712.5,1707.3,1702.3,1694.8,1687.3,1682.7,1673.6,1663.6,1648.8,1643.5,1632.6,1616.8,1607.1,1606,1592.2,1590.3,1583.2,1577.6,1572,1559.9,1560.5,1553.2,1546.6,1540.9,1526.9,1525.5,1518.1,1510,1502.9,1497.4,1489.1,1476.5,1468.2,1459.4,1449.6,1440.8,1430.1,1419.2,1407.9,1400.5,1389.5,1377,1364.8,1349.3,1338.2,1328,1318.4,1308.9,1298.8,1291.8,1281.3,1273,1271.1,1264.4,1257,1244.5,1236.5,1227.8,1218.1,1208.4,1197.7,1185.7,1173.9,1160.3,1148.9,1141,1123.9,1108.4,1100.7,1090.3,1080.6,1071.2,1060.9,1052.6,1042.9,1034.4,1025.4,1018.1,1011.2,999.84,992.13,985.23,978.8,971.96,964.08,960.96,953.43,944.56,936.38,926.46,916.76,901.76,891.33,881.07,870.55,860.8,851.84,844.5,836.37,832.81,825.13,818.49,807.39,800.17,793.08,785.77,778.74,772.85,765.72,759.58,753.28,746.97,742.16,738.97,731.74,726.42,720.75,714.67,709.63,703.52,697.07,690.34,682.78,675.49,669.21,663.88,654.93,647.74,641.12,634.1,627.86,620.91,614.74,608.04,602,595.91,589.51,582.97,576.89,570.82,562.97,558.75,551.92,545.93,542.48,537.72,532.65,527.85,523.09,518.07,513.13,507.37,502.48,496.65,491.69,486.31,480.38,474.37,468.36,461.38,455.7,448.6,441.88,435.73,429.13,422.69,416.98,410.95,405.07,399.3,393.53,387.73,382.65,377,371.68,366.96,361.93,357.19,352.91,348.6,344.77,340.8,336.99,333.23,329.69,326.3,322.33,318.59,314.33,310.44,306.46,302.03,297.92,293.77,289.39,284.87,280.54,276,271.02,266.09,261.16,256.99,252.68,248.43,244.55,240.56,236.44,232.88,229.25,225.49,221.69,218.25,214.67,210.92,207.39,203.82,200.33,196.65,192.76,189.21,185.78,182.11,178.72,175.3,171.58,168.02,164.45,161.05,157.54,154.18,150.79,147.41,144.35,141.03,137.95,135.03,131.99,129.01,126.16,123.34,120.6,117.69,114.99,112.32,109.9,107.48,104.91,102.78,100.58,98.183,95.987,93.834,91.714,89.467,87.236,85.109,83.137,80.849,79.006,77.204,75.62,74.345
1.0251,1.1358,1.2542,1.302,1.3564,1.3982,1.453,1.5504,1.6208,1.6373,1.7319,1.7649,1.7844,1.8724,1.9578,1.991,2.0629,2.0713,2.154,2.1552,2.2078,2.2421,2.2432,2.3294,2.3901,2.4294,2.4656,2.5252,2.6132,2.6503,2.7194,2.7812,2.8218,2.8616,2.8671,2.9692,3.0273,3.0644,3.1316,3.2946,3.4228,3.5185,3.6782,3.9114,4.1112,4.4792,4.8496,5.4463,6.2148,7.1226,8.3086,9.6822,11.567,13.548,16.12,18.984,22.444,25.831,29.299,32.774,36.244,39.973,44.124,48.151,51.571,56.016,60.661,64.974,69.136,72.763,77.318,81.403,85.698,89.995,94.08,98.47,102.53,106.89,111.5,116.43,121.36,126.52,131.95,137.02,142.63,147.92,153.33,159.12,164.99,170.9,177.45,183.9,190.53,196.98,203.61,210.53,217,224.91,232.47,238.28,245.59,252.93,260.01,267.78,275.84,284.09,292.48,301.28,310.4,319.33,328.45,336.08,344.27,353.14,362.18,372,382.12,392.97,403.44,415.38,425.76,436.32,446.18,454.54,464.47,474.87,486.11,497.72,510.02,522.26,535.57,545.71,555.49,565.21,575.1,583.34,594.64,605.86,617.73,629.1,639.63,650.5,660.62,670.51,681.04,693.94,703.98,711.84,722.12,732.82,744.47,756.87,768.45,780.55,791.52,801.86,812.12,822.88,837.08,842.69,855.76,872.4,886.84,901.13,914.76,925.16,939.88,949.74,958.98,967.86,977.42,984.64,995.7,1007.1,1019.2,1032.5,1043.2,1053.3,1062.3,1070.8,1078.9,1091,1098.2,1100.1,1106.6,1114.2,1121.7,1129.4,1136.6,1144.6,1151.3,1158.6,1166.7,1174.1,1181.5,1182.9,1187.7,1198.8,1204,1209.9,1213.9,1227.7,1237.8,1248.7,1259.5,1270,1279.9,1283.5,1290.8,1297.1,1304.8,1311.6,1321.6,1333.8,1346.7,1367.8,1386.5,1404.4,1422.1,1433.8,1448.4,1463.3,1477.7,1491.1,1506.1,1520.3,1534.8,1550.9,1568.8,1592.3,1601.8,1616.3,1627.3,1637.5,1648.3,1657.5,1666.6,1676.1,1684.2,1692.1,1699.5,1703.4,1702,1704.8,1708.1,1711.4,1715.5,1720.5,1726.2,1739,1746.1,1757.3,1769.7,1781,1785.9,1792.8,1796.3,1798,1798.3,1795.8,1793.3,1792.1,1798.5,1800.8,1805.8,1810.9,1811.1,1818.3,1826.7,1835.4,1841.6,1846.6,1849.2,1847.4,1841.8,1837.1,1838.7,1833.6,1825.6,1825.5,1826.5,1831.2,1836.2,1840.7,1844.3,1846.2,1848,1852,1861.1,1854.7,1855.1,1852.2,1849.5,1849.2,1846.6,1845.8,1844.3,1841.4,1841.1,1844.1,1844,1844.5,1836.9,1835.1,1841.1,1839.7,1837.4,1835.8,1827.5,1833.9,1835.1,1836.7,1838.5,1839.4,1833.4,1833.9,1832.6,1828.9,1826.7,1822.9,1820,1814.5,1815.9,1811.2,1805.8,1803.1,1794.7,1793.3,1792.9,1795,1795.3,1795.5,1796,1793.3,1798,1794.6,1789.2,1782.3,1767.2,1757.1,1747.6,1741.2,1732.7,1726.2,1719.2,1712.1,1708.3,1714.6,1712.5,1712.3,1699,1704.3,1703.1,1702.8,1700.4,1695.2,1690,1683,1675.3,1670.7,1662.2,1652.4,1637.4,1632.2,1621.5,1605.9,1596.4,1595.3,1581.3,1579.6,1572.1,1566.8,1561.1,1549.3,1549.8,1542.6,1536.3,1530.5,1516.5,1515.7,1507.7,1499.9,1492.8,1487.8,1479.3,1466.8,1458,1450.1,1440.1,1431.4,1420.9,1410.2,1398.8,1391.6,1381,1368.7,1356.1,1341,1329.9,1319.2,1310.2,1301.1,1290.8,1283.9,1273.6,1265.4,1263.6,1256.8,1249.5,1237,1229.4,1220.8,1211,1201.2,1190.6,1178.8,1167.1,1153.9,1142.2,1134.8,1117.8,1102.6,1094.5,1084.3,1074.7,1064.9,1054.9,1046.3,1036.9,1027.9,1019.3,1012.1,1005.3,994.09,986.53,979.71,973.15,966.99,958.93,955.67,948.18,939.55,931.15,921.12,911.35,896.46,886.16,875.89,865.78,855.97,847.19,840,831.51,828.27,820.4,814.04,802.87,796.09,788.69,781.69,774.57,768.91,761.65,755.47,749.22,743.41,738.24,734.96,728.18,722.77,717.07,711.36,705.68,700.01,693.37,686.67,679.15,672.1,665.78,660.53,651.34,644.26,637.7,630.79,624.71,617.65,611.6,605.12,598.88,592.81,586.5,579.86,573.76,567.87,559.73,555.79,549,543.16,539.52,534.81,529.92,524.83,520.33,514.85,510.22,504.51,499.76,493.69,488.91,483.55,477.75,471.79,465.58,458.68,452.74,446,439.34,433.01,426.6,420.2,414.34,408.25,402.65,396.87,391.07,385.41,380.33,374.52,369.35,364.64,359.81,355.05,350.8,346.46,342.55,338.88,335.02,331.29,327.85,324.24,320.34,316.76,312.55,308.61,304.78,300.34,296.36,292.11,287.54,283.3,278.98,274.16,269.46,264.49,259.89,255.64,251.26,247.22,243.23,239.44,235.19,231.6,227.84,224.27,220.55,217.14,213.62,210.01,206.1,202.67,199.02,195.27,191.61,188.13,184.55,180.93,177.49,173.91,170.58,167.03,163.47,159.95,156.45,153,149.67,146.56,143.29,140.13,137.12,133.92,130.88,128,125.4,122.41,119.7,116.98,114.4,111.55,109.21,106.58,104.41,101.93,99.678,97.586,95.265,93.157,91.005,88.679,86.727,84.431,82.264,80.27,78.493,76.591,74.972,73.676
1.0722,1.1085,1.2128,1.3162,1.3676,1.397,1.4617,1.4669,1.5925,1.6038,1.7135,1.7494,1.8081,1.9158,1.9536,1.9473,2.0638,2.0276,2.1592,2.1387,2.2317,2.2744,2.3321,2.3323,2.3213,2.4246,2.4172,2.4701,2.5442,2.6514,2.6579,2.7556,2.7561,2.8057,2.9016,2.943,3.0122,3.0719,3.1444,3.2537,3.3498,3.4849,3.6959,3.8242,4.1949,4.4522,4.8806,5.392,6.2097,7.1116,8.3455,9.7982,11.524,13.723,16.352,19.215,22.38,25.746,29.237,32.812,36.299,40.077,44.047,48.259,51.725,56.124,60.616,64.85,69.011,72.765,77.285,81.38,85.669,89.996,94.062,98.336,102.38,106.79,111.33,116.28,121.19,126.48,131.78,136.82,142.45,147.72,153.14,158.89,164.71,170.72,176.98,183.43,190.06,196.73,203.08,210.28,216.61,224.39,232.05,237.92,244.99,252.47,259.65,267.47,275.15,283.39,291.79,300.85,309.85,318.77,327.93,335.47,343.89,352.42,361.71,371.47,381.38,392.12,402.46,414.59,425.03,435.78,445.61,453.75,463.83,474.11,485.03,496.8,509.08,521.3,534.99,544.82,554.65,564.53,574.56,582.41,593.72,604.82,616.88,628.1,638.76,649.49,659.74,669.32,679.76,692.87,703.13,710.55,720.89,731.48,743.46,755.52,766.77,779.22,790.22,800.81,811.11,821.46,835.55,840.97,854.05,870.87,885.12,899.61,913.28,923.52,938.46,948.19,957.71,966.91,975.7,983.07,994.37,1005.9,1017.7,1031.3,1042.5,1052.6,1061.3,1069.4,1077.9,1090,1097.4,1099.6,1106.4,1113.8,1121.7,1128.9,1136.2,1143.9,1150.7,1158,1166,1173.7,1181.4,1182.4,1187.5,1197.9,1203.7,1209.6,1213.2,1227.2,1237.4,1247.9,1258.7,1269.6,1279.1,1283.1,1289.8,1296.7,1304.1,1311.3,1321.6,1333.5,1346.2,1367.3,1385.4,1403.2,1421.1,1432.3,1447.6,1462.3,1476.9,1490.8,1505.8,1519.4,1534.2,1550.3,1568.6,1591.8,1601.6,1616.3,1626.8,1637.5,1648.2,1658.1,1666.9,1677,1684.5,1692.2,1699.9,1704.2,1702.5,1705.5,1708.7,1712.3,1716.6,1721.1,1727.3,1739.7,1747.2,1758.1,1769.8,1781.8,1786.3,1793.3,1797,1798.7,1799.6,1796.7,1795,1792.8,1799.5,1802.1,1807.1,1812.2,1812.3,1819.6,1827.9,1836.2,1842.3,1848.2,1850.6,1849,1843,1838.2,1839.9,1835.5,1827.3,1827.1,1828.4,1833,1837.7,1842.3,1845.6,1847.5,1849.8,1852.9,1862.3,1856.4,1857.1,1854.2,1851.6,1850.9,1848.5,1847.5,1846.1,1843.3,1843.2,1845.6,1845.7,1845.8,1838.9,1837,1842.8,1841.6,1839.1,1837.3,1828.9,1835.3,1836.8,1838,1840.1,1841.9,1835.9,1835.7,1834.2,1831,1828.6,1824,1821.6,1816.6,1818.1,1813.2,1807.3,1804.5,1794.8,1793,1792.7,1795.8,1795.8,1795.9,1796.7,1794.2,1798.6,1795.1,1790,1783.3,1767.8,1757.2,1748.2,1741.5,1733.7,1726.7,1719.5,1713.2,1708.6,1714.6,1713.1,1712.2,1699.9,1704.6,1703.4,1702.7,1700.3,1695.8,1690.4,1683.3,1676.4,1671.1,1662.4,1653.2,1637.2,1632.6,1620.9,1605.9,1596.3,1595.5,1581.5,1579.1,1572.1,1567,1560.7,1549.4,1549.3,1542.3,1536,1530.2,1516.7,1515.4,1508,1500,1492.7,1487.4,1479.7,1466.8,1458.6,1449.6,1440,1431.2,1420.8,1409.8,1398.6,1391.4,1380.3,1368.5,1355.8,1341,1330,1319.4,1310.1,1301.2,1290.8,1283.9,1273.8,1265.5,1263.2,1256.9,1249.3,1237.4,1229.2,1220.6,1210.9,1201.5,1190.5,1178.9,1167.5,1154,1142.4,1135,1117.4,1102.3,1094.8,1084,1074.6,1064.6,1054.9,1046.1,1036.6,1028,1019.4,1011.8,1005.2,994.24,986.76,979.46,972.85,966.04,958.21,955.12,947.74,938.81,930.81,920.9,911.21,896.39,886.31,875.85,865.85,856.28,847.2,839.8,831.89,828.02,820.76,813.58,803.08,795.93,788.63,781.35,774.49,768.54,761.51,755.46,749.17,743.12,737.82,734.41,727.42,722.34,716.67,710.55,705.49,699.36,692.66,686.01,678.69,671.67,665.06,659.94,650.9,643.86,636.94,630.06,623.93,617.18,610.99,604.41,598.31,592.05,586.14,579.38,573.27,567.26,559.35,555.02,548.15,542.31,538.87,534.06,528.87,523.96,519.06,513.98,509.4,503.97,498.85,493.29,488.12,482.83,476.96,470.95,464.75,457.88,451.92,445.08,438.42,432.36,425.93,419.66,413.75,407.57,401.93,396.15,390.42,384.71,379.5,374.2,368.81,364.1,359.25,354.38,350.45,345.87,342.29,338.33,334.3,330.81,327.26,323.68,319.53,315.92,311.9,308.11,304.27,299.73,295.7,291.42,286.96,282.61,278.18,273.47,268.92,264.01,259.4,255.04,250.63,246.52,242.8,238.76,234.74,231.08,227.23,223.56,220.12,216.61,212.97,209.53,205.7,202.13,198.61,194.93,191.08,187.62,184.12,180.58,177.14,173.52,170.05,166.53,163.12,159.62,156.3,152.85,149.63,146.18,143.01,139.75,136.91,133.67,130.72,127.85,124.99,122.06,119.41,116.55,113.89,111.29,108.99,106.57,104.1,101.7,99.632,97.282,94.93,92.926,90.623,88.594,86.345,84.173,82.018,79.947,78.025,76.389,74.73,73.46
1.0481,1.191,1.2537,1.2795,1.3565,1.3842,1.4697,1.5542,1.5943,1.6624,1.7136,1.8066,1.8573,1.9454,1.9792,2.0103,2.0034,2.1083,2.1733,2.2145,2.224,2.3017,2.2776,2.3744,2.3572,2.3933,2.4826,2.5084,2.5985,2.6485,2.6771,2.7509,2.8236,2.8872,2.8487,2.9659,2.9862,3.0849,3.1665,3.2763,3.3715,3.4499,3.6392,3.8624,4.1072,4.4528,4.8335,5.5331,6.2273,7.1399,8.4181,9.8538,11.549,13.717,16.188,19.23,22.432,25.866,29.381,32.946,36.391,40.279,44.192,48.419,51.939,56.185,60.957,65.083,69.308,73.141,77.491,81.661,85.958,90.323,94.471,98.714,102.96,107.16,111.9,116.78,121.79,126.96,132.17,137.34,143.07,148.34,153.86,159.59,165.41,171.56,177.86,184.28,190.74,197.47,204.22,211.15,217.61,225.5,233.02,239,246.12,253.58,261.01,268.79,276.55,284.75,293.12,301.91,311.18,320.16,329.39,336.87,345.34,354.16,363.37,373.13,383.12,393.89,404.25,416.45,427.03,437.27,447.37,455.73,465.81,476.35,487.15,498.71,511.33,523.21,536.78,547.07,556.92,566.56,576.62,584.74,595.94,607.05,619.18,630.58,641.23,652.04,662.11,671.97,682.3,695.25,705.44,713.31,723.6,734.26,746.09,758.23,769.44,782.05,792.93,803.63,813.71,824.13,838.29,843.98,856.93,874.18,888.11,902.84,916.62,926.85,942.14,951.71,961.29,970.38,979.52,986.69,997.93,1009.5,1020.9,1035.1,1046.1,1056.2,1065.1,1073.7,1081.8,1094.2,1101.4,1103.7,1110.4,1117.5,1125.4,1133.2,1140.4,1148.1,1155.1,1162.8,1170.7,1178,1185.8,1186.9,1192.1,1202.6,1208.1,1214.2,1218.3,1232.5,1242.1,1252.9,1264.3,1274.6,1283.8,1288.5,1294.9,1301.7,1309,1316.2,1326.4,1338.2,1351.4,1372.3,1390.7,1408.9,1426.4,1437.7,1453.2,1468.2,1482.6,1496.3,1511.3,1525.3,1539.3,1555.7,1574.1,1597.1,1607.3,1621.4,1632.4,1642.8,1653.3,1663.5,1672.1,1682.4,1689.9,1697.4,1705.3,1709.4,1707.8,1710.5,1714.3,1717.5,1721.7,1726.3,1732.6,1744.6,1752.5,1763.5,1775.7,1787.4,1792,1798.8,1802.4,1804.3,1804.7,1802,1800.3,1798.3,1804.7,1807.2,1812.7,1817.6,1817.8,1825.1,1833.9,1842.4,1848.1,1853.8,1856.5,1855,1849.1,1844.2,1845.1,1840.7,1832.6,1832.2,1833.9,1838.1,1843.2,1848,1851.2,1853.4,1855.7,1858.6,1868.2,1862.3,1862.7,1859.8,1857.2,1856.3,1854.1,1853.4,1851.7,1849.2,1848.8,1851.1,1851.2,1851.1,1843.8,1842.2,1848.7,1847.2,1844.7,1842.7,1834.6,1841,1842.4,1844,1845.6,1847.1,1840.8,1840.9,1839.5,1836.3,1833.9,1829.4,1827.3,1821.9,1824.2,1818.6,1812.8,1810.4,1800.5,1799.4,1799.3,1801.6,1801.9,1802.2,1802.7,1800.2,1804.6,1801.3,1796.1,1789.5,1774,1763.8,1754.6,1747.4,1739.3,1732.6,1725.2,1718.7,1714.4,1720.6,1719.1,1718.5,1705.2,1710.2,1709.3,1708.7,1706.1,1701.8,1696.7,1689.2,1681.6,1676.9,1668,1658.6,1643.6,1638.3,1627.2,1611.6,1602.1,1601.3,1587.2,1584.7,1577.7,1572.8,1567,1554.9,1555.4,1547.8,1541.5,1535.5,1521.7,1520.2,1513.1,1505,1498.2,1492.7,1484.8,1471.9,1463.6,1454.9,1445.2,1436.1,1425.9,1414.8,1403.5,1396.2,1385.5,1373.5,1360.5,1345.6,1334.6,1323.5,1314.7,1305.4,1295.5,1288.4,1278.3,1270.1,1267.9,1261.9,1254.4,1241.8,1233.8,1225.2,1215.7,1205.3,1195.1,1183,1171.6,1158.1,1146.7,1138.9,1121.5,1106.3,1098.7,1087.9,1078.6,1069,1059.2,1050.3,1040.8,1032,1023.2,1015.9,1008.9,998.04,990.65,983.13,976.4,970.23,962.2,959.06,951.58,943.03,934.63,924.57,915.05,899.99,889.78,879.37,869.36,859.45,850.38,842.9,834.75,831.38,823.88,817.15,806.28,799.23,791.64,784.25,777.2,771.66,764.73,758.4,751.86,745.8,740.89,737.48,730.69,725.26,719.24,713.51,707.94,702.18,695.46,688.96,681.43,674.48,668.21,662.9,653.58,646.73,639.76,632.69,626.87,619.72,613.67,606.89,600.7,594.5,588.28,581.84,575.73,569.89,561.62,557.32,550.34,544.56,541.07,536.23,531.18,526.31,521.71,516.24,511.54,505.61,500.82,495.07,490.1,484.58,478.78,472.86,466.68,459.79,453.8,446.96,440.27,433.71,427.28,420.96,415.13,409.19,403.15,397.64,391.8,385.89,380.92,375.46,370.02,365.42,360.04,355.43,351.38,346.99,343.06,339.08,335.4,331.66,328.15,324.53,320.69,317.07,312.72,309.1,305.17,300.7,296.62,292.12,287.91,283.65,279.09,274.33,269.68,264.8,260.18,256.06,251.52,247.54,243.61,239.65,235.5,231.81,228.2,224.28,220.93,217.19,213.68,210.12,206.42,202.8,199.25,195.53,191.8,188.22,184.66,180.97,177.67,173.96,170.54,166.96,163.49,160.04,156.67,153.05,149.89,146.56,143.36,140.2,137.24,133.93,131.07,128,125.39,122.36,119.61,116.89,114.26,111.79,109.16,106.68,104.31,101.92,99.662,97.467,95.387,93.178,90.839,88.713,86.496,84.499,82.221,80.139,78.251,76.547,74.893,73.763
1.0611,1.1238,1.2315,1.2836,1.3572,1.4185,1.4578,1.5301,1.5913,1.6347,1.7292,1.7612,1.807,1.8744,1.962,1.9901,2.0631,2.1192,2.1751,2.244,2.2254,2.3155,2.2844,2.3698,2.3862,2.3715,2.458,2.519,2.5512,2.5816,2.6639,2.7199,2.7579,2.8102,2.8765,2.884,2.989,3.0269,3.1008,3.2134,3.329,3.4242,3.6101,3.7931,4.0315,4.3881,4.8251,5.3865,6.1231,6.9607,8.2538,9.5034,11.251,13.26,15.878,18.727,21.898,25.204,28.51,32.079,35.6,39.198,43.049,47.292,50.598,54.753,59.304,63.633,67.796,71.406,75.77,80.017,84.155,88.284,92.511,96.656,100.8,105.11,109.51,114.27,119.19,124.16,129.6,134.55,140.16,145.58,150.87,156.27,162.26,168.11,174.39,180.79,187.14,193.62,200.13,207.16,213.57,221.33,228.69,234.53,241.75,249.01,256.07,263.68,271.82,279.64,288.02,296.87,305.68,314.37,323.63,331.21,339.22,347.95,356.84,366.42,376.31,386.93,397.48,409.33,419.74,430.16,439.94,447.97,457.69,468.16,479.03,490.63,502.43,514.49,527.71,538.28,548.16,557.67,567.62,575.76,586.58,597.59,609.72,621.1,631.81,642.11,652.14,661.77,672.25,685.48,695.32,703.06,713.36,723.97,735.59,747.91,759.06,771.06,782.36,792.79,802.89,812.86,827.16,832.7,845.25,862.43,876.09,890.53,903.87,914.31,929.23,938.93,948.61,957.85,966.78,974.14,985.07,996.85,1008.4,1022.2,1032.7,1043,1051.6,1060.3,1068.6,1080.8,1088.3,1090.2,1096.9,1104,1112.1,1119.8,1127.1,1134.8,1141.8,1149.1,1156.9,1164.2,1171.8,1173.1,1178.5,1188.8,1194.3,1200,1204,1217.8,1227.7,1238.6,1249.9,1260.2,1269.6,1273.9,1280.6,1287,1294.5,1301.4,1311.6,1322.9,1335.4,1356.8,1374.7,1392.6,1410.4,1421.4,1436.6,1451.7,1465.9,1479.4,1494,1508.2,1522.4,1538.1,1556.4,1579.6,1589,1603.7,1614.6,1624.7,1635.3,1645.3,1653.9,1663.8,1671.4,1679.1,1686.6,1690.9,1689.3,1692.2,1695.7,1699.3,1703.6,1708.2,1714.1,1726.4,1733.6,1744.9,1756.7,1768.5,1772.8,1780.1,1783.5,1785,1785.7,1783.2,1781.2,1779.6,1786.6,1788.6,1794.2,1799,1799.1,1806.6,1814.8,1823.1,1829.2,1834.9,1837.7,1835.8,1830.3,1825.4,1827.2,1822.3,1814.2,1814.3,1815.4,1820.3,1824.9,1829.3,1832.4,1834.8,1837.1,1840.5,1850.1,1844.1,1844.2,1841.5,1839,1838.3,1835.5,1835.2,1834.2,1831,1830.7,1833.6,1833.3,1833.3,1826.2,1824.5,1830.8,1829.8,1826.6,1825.5,1817,1823.4,1824.3,1826.2,1828.4,1829.4,1823.8,1823.7,1822.1,1819,1817,1812.6,1809.8,1805.2,1807.1,1801.8,1796,1793.3,1784.1,1782.8,1782.6,1785,1785.4,1785.7,1786.3,1783.7,1788,1784.6,1779.6,1773.1,1758,1747.5,1738.4,1731.6,1723.5,1716.8,1709.6,1702.8,1698.6,1705.2,1703.6,1703.1,1690.2,1695,1693.9,1693.7,1690.7,1686.7,1681.6,1674.5,1667.1,1662,1653.6,1643.7,1628.7,1623.8,1612.3,1597.4,1587.9,1587.2,1572.9,1570.5,1563.4,1558.7,1552.6,1541.3,1541.3,1533.8,1527.5,1522.1,1507.9,1507.2,1499.7,1491.8,1484.5,1479.7,1471.7,1458.7,1450.9,1442.4,1432.4,1423.6,1413.3,1402.4,1391.3,1384,1373.2,1360.9,1348.3,1333.7,1322.7,1312.3,1303.5,1293.7,1284,1277.5,1267.2,1259,1257,1250.9,1243.5,1231.2,1223,1214.7,1205,1195.1,1184.9,1173.1,1161.2,1148.6,1137.3,1129.5,1112.2,1097,1089.2,1078.7,1069.5,1059.7,1049.7,1041,1031.3,1022.7,1014.5,1006.9,1000.3,989.13,981.88,974.85,968.32,961.68,954.02,950.68,943.26,934.69,926.52,916.65,907.02,892.26,882.01,871.77,861.84,851.6,843.15,835.56,827.69,824.34,816.81,810.06,799.41,792.47,785.19,777.78,770.85,765.19,758.43,752.05,745.78,739.85,734.88,730.98,724.49,719.27,713.64,707.64,702.1,696.48,689.82,683.28,676.12,668.84,662.51,657.2,648.17,641.36,634.71,627.46,621.56,614.75,608.35,602.06,595.86,589.67,583.62,576.97,570.78,564.99,557.14,552.93,545.88,539.97,536.57,531.77,526.33,521.7,516.73,511.82,507.03,501.38,496.55,491.08,485.88,480.53,474.76,468.52,462.39,455.94,449.69,442.8,436.29,430.3,423.78,417.44,411.89,405.73,399.79,394.14,388.31,382.63,377.55,372.25,366.74,362.04,356.96,352.54,348.39,344.07,340.29,336.46,332.6,328.89,325.53,321.83,317.99,314.32,310.17,306.27,302.6,298.26,294.12,289.76,285.48,281.35,276.69,272.06,267.68,262.78,257.65,253.77,249.46,245.56,241.55,237.68,233.74,229.91,226.32,222.6,219.13,215.59,212.03,208.23,204.64,201.2,197.73,193.98,190.22,186.64,183,179.43,176.09,172.73,169.35,165.63,162.17,158.75,155.17,151.85,148.5,145.42,142,139.07,136.07,132.92,129.92,126.99,124.32,121.49,118.72,115.81,113.27,110.78,108.15,105.92,103.45,101.16,98.854,96.605,94.497,92.3,90.182,88.044,85.868,83.824,81.671,79.552,77.656,76.03,74.233,73.013
1.0331,1.1178,1.2353,1.3018,1.3735,1.4026,1.4422,1.5263,1.5542,1.6036,1.6754,1.7885,1.8201,1.8584,1.938,1.9933,2.0576,2.0897,2.1188,2.1918,2.2097,2.2389,2.3083,2.3263,2.3327,2.412,2.4256,2.524,2.5738,2.5456,2.7117,2.7095,2.8287,2.8733,2.9614,2.9863,3.0017,3.1316,3.2153,3.2709,3.3629,3.5442,3.669,3.8193,4.1165,4.5328,4.9253,5.4885,6.3085,7.2095,8.5285,9.9568,11.802,14.045,16.668,19.717,22.988,26.424,30.063,33.591,37.164,41.174,45.316,49.504,53.084,57.26,62.304,66.492,70.834,74.611,78.964,83.208,87.541,92.156,96.282,100.67,104.71,109.18,113.82,119.03,123.99,129.56,134.79,140.19,145.73,151.2,156.6,162.51,168.46,174.61,180.99,187.67,194.32,201.03,207.71,214.67,221.18,229.42,236.96,242.92,250.1,257.86,265.03,272.88,281.27,289.4,297.97,306.9,316.28,325.34,334.66,342.1,350.85,359.47,369.12,379.23,389.3,400.02,410.5,422.72,433.21,443.82,454.39,462.38,472.84,483.16,494.14,506.19,518.61,531.01,544.34,554.74,564.2,573.89,584.1,592.38,603.62,615.17,626.85,638.47,649.06,659.84,670.34,680.12,690.51,703.54,714.13,721.59,732.4,743.18,754.84,767.34,778.33,790.46,801.78,812.36,822.64,833.62,847.82,853.32,866.34,883.62,897.73,912.43,926.34,936.54,951.31,961.23,970.69,979.7,988.83,996.25,1007.2,1018.6,1030.7,1044.4,1055.1,1065.6,1074.4,1082.8,1091,1103.2,1110.8,1112.3,1119.1,1126.5,1134.3,1142.2,1149.4,1157.4,1164,1171.6,1179.7,1187.1,1194.9,1195.8,1201,1211.4,1217.8,1223.6,1227,1241.3,1252.2,1262.6,1273.6,1284,1293.6,1297.7,1304.6,1311,1318.8,1325.8,1336.4,1348.3,1361.8,1383,1401.7,1419.4,1437.5,1448.9,1464.1,1479.2,1493.4,1507.2,1521.8,1536.3,1550.7,1567,1585.3,1608.5,1618.4,1633.2,1643.7,1653.9,1665,1674.6,1683.3,1693.3,1701.5,1709.1,1716.4,1720.9,1719,1722.1,1725.2,1728.9,1733.1,1738.1,1743.8,1756.5,1764,1775,1787.6,1799.2,1803.4,1810.7,1813.9,1816,1816.6,1813.7,1811.2,1809.9,1816,1819.1,1824,1829.1,1829.4,1836.8,1845,1853.6,1859.8,1865,1867.8,1865.9,1860.4,1855.8,1856.5,1851.8,1843.9,1843.4,1844.6,1849.5,1854,1859.2,1862.3,1864.6,1866.3,1870.1,1879.4,1873.1,1873.6,1870.6,1867.4,1867.7,1864.6,1863.5,1862.5,1859.6,1859.4,1862.4,1862.3,1862.4,1854.8,1852.9,1859,1858,1855.6,1853.3,1844.7,1851.4,1853,1854.2,1855.9,1857.5,1851.1,1851.3,1849.8,1846.3,1843.9,1839.7,1837.4,1831.8,1833.3,1828.1,1822.9,1820,1811,1809.9,1809.5,1811.5,1811.7,1811.9,1812.7,1810.2,1814.5,1811.4,1805.5,1798.9,1783.5,1773.4,1763.9,1757.5,1748.8,1742.3,1734.9,1727.7,1723.6,1729.8,1728.4,1727.6,1714.2,1719.1,1718.4,1717.9,1715.1,1710.3,1705.2,1698.3,1690.4,1685.8,1676.5,1666.5,1651.6,1646.8,1635.6,1620.2,1610.5,1609.5,1595.9,1593.5,1586.5,1580.8,1575,1563.1,1562.9,1555.9,1549.7,1543.3,1529.7,1528.5,1521.1,1512.9,1505.4,1500.7,1492.2,1479,1470.9,1462.6,1452.4,1443.5,1433.1,1421.8,1410.6,1403.5,1392.2,1380,1367.4,1352.3,1341.4,1330.4,1321,1311.9,1301.3,1294.5,1284.2,1276,1273.5,1267.3,1259.6,1247.3,1239.5,1230.9,1221.1,1211.4,1200.3,1188.6,1176.6,1163,1151.8,1143.8,1126.5,1111.3,1103.3,1093,1083.5,1073.7,1063.9,1055.1,1045.5,1036.9,1027.9,1020.6,1013.3,1002.2,994.95,987.48,981.01,974.66,966.64,963.61,955.92,947.15,938.95,928.78,919.33,904.12,893.55,883.04,873.01,862.92,854.16,846.78,838.81,835.11,827.41,820.97,809.55,802.46,795.16,787.81,780.66,774.98,767.81,761.4,755.04,749.14,743.92,740.86,733.5,728.39,722.67,716.65,711.33,705.33,698.63,692.27,684.37,677.32,670.89,665.62,656.41,649.54,642.5,635.72,629.42,622.52,616.23,609.67,603.53,597.22,590.89,584.3,578.15,572.25,564.02,560.03,552.95,547.01,543.84,538.94,533.9,528.92,524.33,518.9,514.16,508.18,503.45,497.75,492.45,486.83,481.38,475.17,468.71,462.08,456.16,449.16,442.4,436.17,429.72,423.35,417.42,411.43,405.48,400.01,393.86,388.3,383,377.59,372.14,367.52,362.33,357.7,353.43,348.98,345.35,341.08,337.43,333.4,329.95,326.39,322.55,319.03,314.69,310.84,306.86,302.3,298.33,294,289.51,285.13,280.58,275.97,271.19,266.23,261.68,257.19,252.9,248.7,244.75,240.95,236.89,232.91,229.23,225.56,222.07,218.33,214.97,211.17,207.51,204,200.31,196.66,192.64,189.13,185.78,182.07,178.83,175.13,171.76,168.14,164.56,161.1,157.68,154.11,150.82,147.54,144.19,141.13,137.95,134.88,131.68,128.94,126.08,123.21,120.47,117.65,114.93,112.38,109.89,107.58,104.98,102.74,100.36,98.103,95.899,93.635,91.622,89.306,87.148,85.008,82.841,80.658,78.897,77.083,75.492,74.228
1.0269,1.1547,1.2269,1.3091,1.3249,1.4067,1.4959,1.5245,1.5725,1.669,1.7359,1.8161,1.8805,1.8697,1.973,2.0025,2.0073,2.0938,2.2006,2.2212,2.2685,2.2865,2.3531,2.3913,2.3992,2.4658,2.4708,2.4915,2.5541,2.5885,2.6306,2.7644,2.7805,2.8385,2.862,2.8829,3.001,3.0513,3.1335,3.2362,3.3452,3.4921,3.6304,3.8067,4.1091,4.4488,4.9039,5.5243,6.2697,7.258,8.4293,9.8947,11.805,14.095,16.742,19.786,23.054,26.432,30.066,33.619,37.134,41.176,45.242,49.436,53.062,57.428,62.035,66.381,70.772,74.532,79.005,83.148,87.534,91.906,96.087,100.38,104.6,108.95,113.67,118.71,123.73,129.08,134.21,139.61,145.28,150.59,156.07,162.13,167.75,174.02,180.42,187,193.74,200.38,207.04,213.98,220.64,228.57,236.07,241.97,249.12,256.84,264.27,272.14,279.94,288.19,296.79,305.79,315.02,324.16,333.25,340.92,349.2,358.11,367.5,377.72,387.69,398.41,408.9,421.03,431.36,442.1,452.24,460.57,470.69,481.03,492.06,504.01,516.39,528.78,541.94,552.1,562.1,571.64,581.67,589.98,601.15,612.35,624.06,635.66,646.34,656.8,667.09,677.01,687.25,700.29,710.69,718.34,728.55,739.13,751.16,762.84,774.36,786.6,797.49,808,818.16,828.66,842.88,848.33,860.92,877.89,892.14,906.83,919.97,930.5,944.74,954.88,964.18,973.23,982.51,989.54,1000.3,1011.9,1023.7,1037.5,1047.8,1058.4,1067,1075.8,1083.7,1095.7,1103.2,1105.1,1111.6,1119.2,1127.2,1134.7,1142,1149.9,1156.8,1163.8,1171.8,1179,1186.8,1188.2,1193.3,1203.8,1209.4,1215.2,1219.2,1233.2,1243.5,1254.4,1265.4,1275.8,1285.3,1289.2,1296.1,1302.9,1310.3,1317.4,1327.7,1339.4,1352.4,1374.1,1392.6,1410.2,1428.6,1439.6,1454.6,1469.4,1484,1497.9,1512.3,1526.7,1541,1556.9,1575.4,1598.5,1608.6,1622.8,1633.4,1643.9,1654.8,1664.4,1672.9,1683,1691.1,1698.6,1706.3,1710.2,1708.7,1712,1715.1,1718.7,1722.7,1727.5,1733.2,1746.4,1753.4,1764.4,1777,1788.4,1792.8,1799.5,1803.1,1804.5,1805.5,1802.9,1800.8,1799,1805.3,1808.1,1813.2,1818.5,1818.7,1826.3,1834.4,1842.8,1849,1854.4,1856.9,1855.5,1849.3,1844.5,1846.1,1841.1,1833.3,1833.2,1834.3,1838.9,1844,1848.4,1851.3,1854,1855.8,1859.5,1869.1,1862.8,1863.3,1860.4,1857.4,1857.1,1854.4,1853.3,1852.1,1849.8,1849.2,1851.6,1851.5,1852.1,1844.6,1842.8,1848.9,1847.9,1845.3,1843.6,1835.1,1841.5,1842.9,1844.9,1846.6,1847.9,1841.9,1841.9,1840.2,1837,1834.9,1830.1,1827.5,1822.3,1823.8,1819,1813.4,1810.5,1801.8,1800.3,1799.7,1801.7,1802.5,1802.9,1803,1800.6,1805.3,1801.8,1796.2,1789.7,1774.5,1763.8,1754.6,1747.9,1739.6,1733.1,1725.8,1718.7,1714.9,1721.3,1719.9,1718.9,1706.1,1711,1709.9,1709.2,1706.5,1702.1,1696.6,1689.7,1682.3,1677.6,1668.6,1658.8,1643.8,1638.8,1627.2,1611.9,1602.4,1601.7,1587.8,1585.7,1578.6,1573.2,1567.2,1555.5,1555.9,1548.5,1542,1535.9,1522.5,1521.7,1513.8,1506,1498.5,1493.3,1485.5,1472.6,1463.8,1455.6,1445.4,1436.9,1426.3,1415.8,1404.3,1396.9,1386.1,1374,1361.4,1346.4,1335.4,1324.5,1315.1,1306,1295.6,1288.6,1278.4,1270.4,1268.2,1261.8,1254.3,1242.1,1233.8,1225.7,1215.8,1205.9,1195,1183.1,1171.7,1158.3,1146.5,1138.9,1121.9,1106.6,1098.9,1088.5,1079.1,1069.1,1059.4,1050.7,1041.1,1032.3,1023.7,1016.4,1009.2,998.28,990.54,983.68,976.95,970.27,962.44,959.38,952.04,943.09,935.05,924.61,915.6,900.57,890.08,879.64,869.38,859.61,850.31,842.97,834.85,831.39,823.81,817.4,806.29,799.23,791.83,784.61,777.72,772.05,764.68,758.25,752.16,746.17,740.92,737.72,730.96,725.76,719.84,713.84,708.47,702.47,696.03,689.43,682.04,674.61,668.14,663.08,653.78,646.78,639.99,632.88,626.86,619.94,613.87,607.35,601.01,594.97,588.67,582.1,575.94,569.96,561.52,557.83,550.75,544.83,541.68,536.54,531.62,526.64,521.97,516.71,512.03,506.29,501.08,495.72,490.71,485.05,479.21,473.16,466.94,460.08,454.14,447.45,440.59,434.31,427.92,421.67,415.63,409.56,403.87,398.07,392.39,386.45,381.31,375.85,370.67,365.81,360.56,356.03,351.83,347.41,343.67,339.74,335.84,332.12,328.7,325.1,321.16,317.64,313.38,309.56,305.55,301.14,296.94,292.72,288.31,283.92,279.44,274.69,270.01,265.18,260.27,256.06,251.82,247.82,243.78,239.92,235.84,232.22,228.44,224.81,221.17,217.53,214.08,210.28,206.64,203.14,199.55,195.86,192.12,188.55,184.85,181.48,177.97,174.48,170.87,167.28,163.91,160.19,156.74,153.4,150.11,146.89,143.71,140.58,137.44,134.25,131.2,128.34,125.54,122.67,119.88,117.03,114.39,111.97,109.32,106.92,104.56,102.2,99.953,97.646,95.497,93.285,91.131,88.888,86.729,84.558,82.578,80.336,78.517,76.759,75.14,74.038
1.0244,1.1042,1.2119,1.2453,1.3268,1.3837,1.4708,1.4725,1.5735,1.6369,1.6896,1.7724,1.7964,1.8367,1.9656,1.9635,2.0321,2.0987,2.1197,2.1611,2.2318,2.2728,2.2977,2.3249,2.3565,2.4396,2.419,2.4562,2.5101,2.5507,2.6128,2.6478,2.7924,2.7749,2.8294,2.877,2.9137,3.0147,3.0783,3.1621,3.333,3.4254,3.526,3.7961,4.0106,4.3977,4.8797,5.4053,6.0696,7.1032,8.3446,9.5945,11.459,13.76,16.33,19.268,22.458,26.003,29.433,32.987,36.452,40.252,44.351,48.405,52.034,56.184,60.814,65.079,69.315,73.127,77.519,81.645,85.868,90.303,94.172,98.503,102.68,106.91,111.56,116.33,121.23,126.3,131.61,136.76,142.42,147.53,152.93,158.75,164.64,170.59,176.9,183.23,189.62,196.3,202.93,209.68,216.03,224.14,231.5,237.42,244.51,251.83,258.95,266.61,274.61,282.65,291.12,299.79,308.59,317.59,326.57,334.41,342.67,351.18,360.3,369.72,379.82,390.69,400.81,412.82,422.9,433.26,443.31,451.53,461.53,471.69,482.61,494.17,506.26,518.12,531.54,541.32,551.37,560.9,570.88,578.83,589.93,601.03,612.91,624.25,634.59,645.17,654.99,664.72,675.16,688.08,697.78,705.37,715.71,726.21,737.91,749.97,761.25,773.07,783.89,794.14,803.95,814.6,827.89,833.65,846.1,862.62,876.34,890.62,903.57,913.65,928.53,938.42,947.63,956.42,965.35,972.82,983.78,994.73,1006.5,1020,1030.3,1040.4,1049.2,1057.3,1065.4,1077.8,1085.1,1086.7,1093.5,1100.9,1108.5,1116.3,1123.4,1131.4,1138.1,1145.5,1153.2,1160.2,1168,1169.3,1174.3,1184.8,1190.2,1195.8,1200,1213.4,1223.1,1234,1244.7,1255.4,1265,1269.1,1275.7,1282.4,1289.5,1296.5,1306.1,1318.1,1330.5,1351.5,1369.6,1387.1,1404.9,1416,1430.6,1445.5,1459.8,1473.3,1487.5,1501.7,1515.8,1531.3,1549.2,1572.2,1582.1,1596.6,1607.3,1617.3,1628.2,1637.9,1646.2,1656.2,1663.9,1671.8,1678.6,1683.4,1681.5,1684.3,1687.4,1690.9,1695.2,1699.7,1705.9,1718.3,1725.3,1736.4,1748.3,1759.9,1764.5,1771.3,1774.9,1776.4,1776.6,1774.2,1771.9,1770.2,1776.6,1779.3,1784.4,1789.7,1789.6,1797.1,1805.6,1813.5,1819.6,1824.9,1826.9,1825.9,1819.9,1815.2,1816.8,1811.4,1803.6,1803.6,1804.8,1809.7,1814.4,1819,1822.1,1824,1826.2,1829.9,1839.3,1832.9,1833,1830.5,1827.6,1827.4,1824.8,1824.2,1822.5,1819.5,1819.6,1822.2,1822.3,1822.6,1815.1,1813.4,1819,1817.7,1815.5,1813.7,1805.8,1811.6,1813.4,1815.2,1816.6,1817.8,1811.9,1812,1811,1807.4,1805.3,1800.7,1798.4,1793,1794.1,1789.5,1784.2,1781.2,1772.7,1771.3,1770.8,1773,1772.8,1773.4,1773.9,1771.4,1776.1,1772.4,1767.1,1760.3,1744.8,1735,1726,1719,1711.2,1704.5,1697.5,1690.3,1686.4,1692.7,1691.4,1690.3,1677.8,1682.4,1681.7,1681.1,1678.5,1674.1,1668.9,1662,1654.8,1649.8,1641.6,1631.8,1616.7,1611.9,1600.4,1585.1,1575,1574.9,1561,1559,1551.6,1546.5,1540.4,1528.6,1529.3,1521.9,1516.1,1510.1,1496.8,1496.2,1488.4,1480.4,1473.4,1468.6,1460.3,1447.6,1439,1430.9,1421.3,1412.8,1401.8,1391.5,1380.6,1373.1,1361.9,1350.2,1337.9,1323.3,1312.3,1301.8,1292.5,1283.8,1273.8,1266.8,1257.1,1249,1246.8,1240.3,1233.3,1221.1,1213.2,1205,1195.3,1185.7,1175.2,1163.6,1152.4,1139.3,1128,1120,1103.1,1087.9,1080.6,1070,1060.5,1051,1041,1032.1,1022.6,1014.2,1005.5,998.58,991.88,980.9,973.89,966.87,960.44,954.05,945.94,943.23,935.72,926.78,918.67,908.45,898.83,884.28,873.94,863.91,854.24,844.62,835.93,828.76,820.89,817.31,809.64,803.34,792.63,785.66,778.36,771.49,764.59,758.85,751.96,745.55,739.59,733.72,728.42,725.22,718.29,713.12,707.6,701.47,696.11,690.22,683.87,677.32,669.94,662.98,656.8,651.74,642.48,635.58,629.02,622.1,616.16,609.21,603.11,596.7,590.53,584.26,578.13,571.96,565.63,559.91,551.66,547.9,540.81,535.26,531.43,526.66,521.33,516.51,511.87,506.75,501.94,496.76,491.86,486.29,481.35,476.06,470.65,464.53,458.33,451.69,445.68,439.17,432.5,426.37,419.98,413.99,408.26,402.21,396.19,390.6,384.78,379,374.22,368.74,363.56,358.86,353.97,349.61,345.51,341.2,337.52,333.65,329.75,325.96,322.8,319.08,315.2,311.6,307.43,303.7,299.59,295.5,291.49,287.34,282.95,278.7,274.38,269.63,265.32,260.38,255.72,251.56,247.17,243.3,239.4,235.56,231.61,227.81,224.33,220.72,217.07,213.36,209.97,206.45,202.75,199.35,195.9,192.12,188.4,184.88,181.39,178,174.67,171.09,167.6,164.17,160.73,157.26,153.72,150.46,147.15,143.95,140.67,137.77,134.77,131.6,128.55,125.82,123.16,120.09,117.55,114.71,112.29,109.6,107.09,104.77,102.5,100.1,97.941,95.744,93.56,91.411,89.279,86.909,85.001,82.955,80.735,78.605,76.904,75.16,73.53,72.37
1.0824,1.1531,1.2694,1.3321,1.4046,1.4172,1.5183,1.5991,1.6176,1.7086,1.7401,1.8701,1.9047,1.9703,2.0389,2.053,2.1021,2.1469,2.1738,2.2347,2.2803,2.3135,2.3867,2.4047,2.4264,2.5812,2.5099,2.5555,2.5664,2.6428,2.6517,2.7087,2.7791,2.9057,2.9112,2.9923,3.0011,3.1217,3.1158,3.2703,3.3585,3.5449,3.7031,3.9056,4.1883,4.509,4.9461,5.5448,6.3578,7.309,8.6059,10.106,12.005,14.259,16.936,19.986,23.386,26.826,30.296,33.893,37.487,41.415,45.744,49.86,53.367,57.77,62.523,66.875,71.094,75.056,79.515,83.714,88.013,92.452,96.655,101.2,105.27,109.66,114.34,119.31,124.46,129.83,135.21,140.35,146.15,151.52,157.02,162.91,168.99,174.99,181.51,187.99,194.92,201.56,208.33,214.95,221.61,229.81,237.55,243.22,250.51,258.29,265.71,273.49,281.66,290.02,298.41,307.54,316.96,326.25,335.28,343,351.41,360.52,370.06,380.32,390.46,401.13,411.59,423.87,434.43,445.43,455.87,464.32,474.36,484.79,495.98,507.98,520.85,532.97,546.54,556.67,566.31,576.33,586.44,594.72,606.21,617.54,629.46,641.34,652.21,662.86,673.38,683.55,694.07,707.46,717.9,725.84,736.18,747.07,759.34,771.63,783.12,795.49,806.87,817.77,828.24,839.2,853.67,859.29,872.81,890.25,904.87,919.54,933.21,943.54,958.17,968.48,977.93,986.96,996.31,1003.5,1015.1,1026.8,1038.9,1052.6,1063.5,1073.8,1082.9,1090.9,1099.4,1111.6,1119.4,1121.1,1127.6,1135.2,1143.1,1150.8,1158,1166,1172.9,1180.6,1188.4,1196.1,1203.9,1205.4,1210.3,1221,1226.7,1233,1236.6,1251,1261.6,1272,1283.4,1293.8,1303.7,1307.8,1314.7,1321.2,1328.9,1336.3,1346.8,1359.2,1372.9,1394.2,1413,1431.1,1449.4,1460.6,1475.7,1490.6,1505.4,1519.1,1534.1,1548.9,1563.4,1579.5,1597.7,1621.9,1631.3,1646,1657,1667.5,1678.3,1687.9,1696.4,1707,1714.4,1722.6,1730.3,1734.6,1732.8,1735.8,1739.1,1742.6,1746.6,1751.9,1757.4,1770.7,1778,1789.1,1801.7,1812.8,1817.8,1824.9,1828,1830.3,1830.6,1828,1825.8,1823.8,1830.2,1833.2,1837.8,1842.9,1843.5,1851.3,1859.3,1867.5,1874.2,1879.8,1882.6,1880.5,1874.8,1869.7,1870.9,1866.1,1857.9,1857.8,1859.1,1863.5,1868.9,1873.4,1876.7,1878.7,1881.1,1884.7,1894.4,1887.7,1888.2,1884.8,1882.3,1882,1879.2,1877.7,1877.1,1874.2,1873.7,1876.5,1877,1877.1,1869.2,1867.4,1873.6,1872.3,1869.9,1868,1859.3,1865.6,1867.4,1868.9,1870.2,1871.4,1866.1,1866.2,1864.7,1860.8,1858.5,1853.9,1851.6,1845.8,1847.9,1842.8,1837.2,1834,1825.1,1823.9,1823,1825.3,1826.4,1826.6,1826.5,1824.3,1828.9,1825.2,1819.9,1812.8,1797.6,1787.3,1777.9,1770.8,1762.3,1755.7,1748.7,1741.4,1737.4,1743.4,1741.5,1741.5,1728,1733.7,1732.4,1731.8,1729.2,1724.1,1718.9,1711.6,1704,1699,1689.8,1680.1,1664.6,1659.3,1647.9,1632.4,1622.6,1622.4,1607.8,1606,1598.9,1593.3,1587.4,1575.4,1575.9,1568.3,1562.5,1556.5,1542.6,1541.5,1533.4,1525.3,1517.8,1512.6,1504.1,1491.3,1482.5,1473.8,1464,1455,1444.4,1433.7,1421.7,1414.8,1404,1391.2,1378.8,1363,1351.8,1340.6,1331.3,1321.9,1311.4,1304.6,1294.2,1285.3,1283.4,1276.8,1269.3,1257,1249,1240.4,1230.6,1220.4,1209.7,1197.4,1185.4,1171.4,1160,1152.4,1134.7,1119.2,1111.5,1101.1,1091.5,1082,1071.9,1063.3,1053.5,1044.8,1036.2,1029,1021.9,1010.8,1002.8,995.27,988.76,982.24,974.41,970.95,963.34,954.48,946.09,935.99,926.59,911.17,900.73,890.59,880,870.07,860.99,853.33,845.16,841.45,833.63,827.09,816.11,808.64,801.08,793.92,786.62,780.55,773.53,767.11,760.8,754.68,749.56,746.23,739.26,733.69,728.4,722.32,716.63,710.71,704.25,697.53,689.85,682.39,676.12,670.69,661.13,654.3,647.22,640.45,634.08,626.89,620.76,614.16,607.93,601.71,595.54,588.73,582.67,576.36,568.45,564.22,557.09,551.28,547.92,543.03,538.18,533.28,528.47,523.25,518.54,512.42,507.39,501.66,496.4,491.01,485.16,478.86,472.74,466.14,459.8,452.72,446.12,439.64,433.08,426.7,420.63,414.6,408.62,402.82,397.1,391.22,386.19,380.46,374.99,370.31,365.27,360.48,356.14,351.5,347.9,343.65,339.8,335.93,332.42,328.77,324.8,321.21,316.88,313.1,309.03,304.48,300.42,296.14,291.66,287.37,282.78,277.91,273.06,268.07,263.12,258.89,254.36,250.29,246.37,242.39,238.37,234.71,230.82,227.03,223.56,219.96,216.3,212.59,208.95,205.42,201.87,197.88,194.2,190.53,187.03,183.4,180.08,176.4,172.87,169.22,165.69,162.1,158.59,155.24,151.58,148.5,145.16,141.96,139,135.62,132.52,129.78,126.8,123.92,121.15,118.36,115.63,112.94,110.5,108.06,105.63,103.25,100.86,98.62,96.418,94.369,91.985,89.782,87.709,85.459,83.326,81.246,79.344,77.507,75.916,74.581
1.0297,1.1692,1.196,1.2869,1.3765,1.4351,1.4584,1.506,1.5237,1.6298,1.7216,1.7517,1.8126,1.9099,1.9519,1.9469,2.0362,2.0644,2.1103,2.2364,2.2615,2.2603,2.3163,2.3287,2.3966,2.5248,2.4265,2.5099,2.4928,2.5499,2.6263,2.6625,2.6993,2.7947,2.8045,2.881,2.9531,3.0265,3.0979,3.1821,3.3203,3.3919,3.5285,3.7957,4.1581,4.3466,4.7567,5.3456,6.0791,6.9574,8.2612,9.5735,11.291,13.483,16.019,18.867,21.901,25.334,28.796,32.189,35.752,39.425,43.403,47.343,50.858,54.934,59.559,63.883,67.949,71.776,76.093,80.182,84.509,88.773,92.837,96.996,101.07,105.39,110.05,114.65,119.57,124.65,129.85,135.06,140.67,145.95,151.35,156.87,162.86,168.7,174.88,181.25,187.67,194.09,200.65,207.72,214.09,221.92,229.32,235.07,242.26,249.47,256.55,264.19,272.06,279.91,288.58,297.12,306.18,314.87,324.08,331.64,339.86,348.37,357.31,366.97,376.89,387.53,397.65,409.94,420.08,430.5,440.29,448.14,458.34,468.51,479.56,491.1,503.2,515.05,528.36,538.28,548.03,557.51,567.44,575.47,586.87,597.77,609.62,620.99,631.58,642.13,651.89,661.75,672.01,684.81,695.09,702.92,713.08,723.73,735.54,747.87,758.99,771.25,781.89,792.65,802.47,812.98,827.05,832.82,845.56,862.31,876.03,890.5,903.56,913.75,928.15,938.14,947.47,956.44,965.97,972.88,984.42,995.74,1007.5,1020.5,1031.4,1041.4,1050,1058.1,1066.2,1078.2,1085.9,1087.6,1094.5,1101.3,1109.1,1117,1123.9,1131.7,1138.9,1146.2,1154.5,1161.5,1168.6,1170.7,1175.6,1185.9,1191.2,1197.6,1200.9,1215.1,1225.2,1235.5,1246.8,1257.3,1267.2,1270.5,1277.8,1284.2,1291.5,1298.4,1308.5,1320.6,1333.5,1354.5,1372.8,1390.2,1407.8,1419,1433.7,1448.5,1462.3,1475.9,1490.8,1504.4,1518.7,1534.4,1552.3,1575.5,1585.1,1599.5,1609.7,1620.3,1631.1,1640.1,1648.8,1658.4,1666.4,1673.5,1681.6,1685.8,1684,1686.7,1689.9,1693.7,1697.6,1702.4,1708.2,1721,1728.4,1738.7,1751.6,1762.4,1767.5,1773.6,1777.4,1779,1779.3,1776.5,1774.3,1773.1,1779.3,1781.9,1787.6,1792.1,1792.2,1799.7,1807.3,1816.4,1822.6,1827.8,1830.3,1828.4,1822.3,1817.3,1818.8,1814.1,1806.1,1805.9,1807.2,1811.9,1817.1,1821,1825.1,1827.3,1829.3,1832.8,1842,1836.5,1835.9,1832.8,1830.1,1829.7,1827.4,1826,1824.7,1822.6,1822.2,1825,1825.4,1825.4,1818.3,1816.9,1822.4,1820.8,1819,1816.6,1808.8,1814.3,1815.7,1817.3,1818.7,1820.6,1814.9,1814.9,1813.5,1810.7,1808.2,1804,1801.5,1795.7,1797.8,1793.3,1788,1784.7,1776.3,1775,1775,1776.8,1777.2,1777.9,1778.1,1775.7,1780.3,1776.2,1771.1,1764.6,1749.9,1739.4,1730.4,1723.2,1715.5,1709.4,1702.5,1694.9,1691.2,1697.8,1696.1,1695.7,1683.3,1688.3,1686.5,1686.5,1683.8,1679.1,1673.6,1667.6,1660,1654.7,1646.2,1636.2,1621.3,1616.1,1605.3,1590.1,1580.7,1579.7,1565.8,1563.7,1556.6,1551.9,1545.8,1534.3,1534.4,1527.4,1521.1,1515.4,1501.7,1500.9,1493.4,1485.1,1478.5,1472.9,1465,1452.2,1443.4,1435.2,1425.3,1417,1406.3,1395.6,1383.9,1377.4,1366.1,1354.2,1342.4,1327.3,1316.1,1305.6,1296.4,1287.9,1277.5,1270.5,1260.6,1252.4,1250.6,1243.7,1236.4,1224.2,1216.6,1208,1199.1,1189.1,1178,1166.7,1155.4,1142.3,1131,1122.9,1105.7,1090.6,1083.4,1072.8,1063,1053.6,1043.8,1035.3,1026,1017.3,1009,1001.8,995.23,983.98,976.91,969.85,963.35,956.79,948.88,945.75,938.52,929.94,921.41,911.67,901.99,887.26,877.14,867.2,856.95,847.24,838.27,831.22,823.01,819.69,812.4,805.72,795.46,788.11,780.79,773.7,766.9,761.29,754.41,747.91,741.99,735.79,730.72,727.43,720.75,715.33,710.02,703.99,698.64,692.9,686.32,679.61,672.39,665.09,659.05,654.09,644.69,637.83,631.21,624.36,618.29,611.16,605.13,598.83,592.59,586.44,580.24,573.69,567.74,561.86,553.98,549.69,542.82,537.06,533.36,528.63,523.93,519.06,514.02,508.72,504.23,498.85,493.9,488.39,483.61,478.2,472.37,466.28,460.12,453.51,447.37,440.71,434.24,428.2,421.61,415.6,409.6,403.62,397.78,392.17,386.45,380.6,375.64,370.18,364.73,360.2,355.23,350.71,346.44,342.44,338.56,334.43,330.8,327.15,323.81,320.13,316.34,312.72,308.58,304.78,300.88,296.63,292.54,288.17,284.13,279.75,275.5,270.61,266.14,261.27,256.5,252.33,248.07,244.03,240.18,236.28,232.28,228.7,224.94,221.41,217.87,214.11,210.61,207.31,203.36,199.95,196.63,192.76,189.07,185.61,182.21,178.48,175.29,171.74,168.21,164.76,161.29,157.83,154.29,151.08,147.7,144.5,141.35,138.23,135.26,132.2,129.21,126.33,123.45,120.6,117.94,115.35,112.58,110.04,107.65,105.25,102.77,100.53,98.19,96.028,93.77,91.753,89.684,87.579,85.266,83.155,81.12,79.065,77.142,75.405,73.83,72.683
1.0612,1.1485,1.2214,1.2736,1.3675,1.3997,1.4908,1.5249,1.5798,1.6156,1.693,1.7658,1.8067,1.916,1.9709,1.9664,2.0821,2.0592,2.121,2.1827,2.252,2.2885,2.3135,2.3535,2.4166,2.5151,2.469,2.5629,2.5217,2.6003,2.6599,2.6697,2.6905,2.7749,2.828,2.9161,3.0209,3.029,3.0575,3.1906,3.2932,3.441,3.6164,3.8133,4.0989,4.445,4.9283,5.4385,6.1688,7.116,8.4498,9.7997,11.681,13.74,16.302,19.418,22.515,25.865,29.419,32.932,36.416,40.373,44.34,48.436,52.056,56.107,60.872,65.254,69.386,73.191,77.612,81.659,85.94,90.365,94.553,98.712,102.79,107.2,111.78,116.56,121.63,126.79,132.13,137.31,142.76,148.21,153.77,159.47,165.2,171.43,177.78,184.11,190.62,197.24,203.76,210.82,217.15,225.07,232.74,238.64,245.76,253.15,260.41,267.98,276.14,284.26,292.66,301.19,310.44,319.6,328.62,336.32,344.55,353.2,362.37,372.3,382.44,392.94,403.43,415.82,425.86,436.5,446.29,454.72,464.75,475.07,486.26,497.81,509.91,522.44,535.88,545.71,555.56,565.07,575.34,583.45,594.52,606.04,617.98,629.37,639.68,650.5,660.8,670.49,681.12,694.12,704.22,712.06,722.7,733.14,745.13,757.39,768.71,781,791.91,802.71,812.74,823.29,837.53,843.35,856.26,873.05,887.33,901.91,915.45,926.09,940.5,950.52,959.81,968.61,978.21,985.62,996.66,1007.8,1020,1033.4,1044.2,1054.7,1063.3,1071.5,1080,1091.8,1099.5,1101.3,1108,1115.1,1122.9,1131,1137.9,1145.8,1152.3,1160.2,1168.1,1174.8,1182.9,1184.2,1189.2,1200,1205.7,1211.2,1215.2,1229.1,1239.9,1250.3,1261.2,1271.8,1281.5,1285.3,1292.3,1298.7,1306.3,1313.3,1323.8,1335.7,1348.8,1370.1,1388.9,1406.2,1424.1,1435.5,1450.4,1465.3,1479.8,1493.4,1508.1,1522.3,1536.4,1552.8,1570.8,1594.1,1603.7,1617.9,1629,1639.3,1650.1,1659.7,1667.7,1678.2,1686.2,1693.5,1701.3,1705.8,1704.2,1706.5,1709.7,1713.4,1717.7,1722.7,1728.7,1741,1748.5,1759,1771.9,1782.9,1787.9,1795,1797.9,1800.1,1800.4,1797.8,1796.1,1794.7,1800.5,1802.9,1808.1,1813.3,1813.7,1820.9,1829.2,1837.8,1843.8,1849.3,1851.7,1849.9,1843.7,1839.1,1840.5,1835.6,1827.6,1827.8,1828.9,1833.7,1838.7,1843.5,1847.1,1849.2,1850.9,1854.6,1863.5,1858.1,1858,1855,1852,1851.6,1848.8,1848.1,1846.4,1844.1,1844,1846.5,1847.2,1846.6,1839.6,1837.8,1843.6,1842.6,1840,1838.4,1829.9,1836.5,1837.3,1838.9,1841,1842,1836.3,1836.1,1835.3,1831.8,1829.3,1825.2,1822.7,1817,1818.7,1813.8,1808.3,1805.5,1796.9,1795.8,1795.6,1797.3,1798.6,1798.6,1799,1796.4,1801,1797.2,1791.6,1785.4,1769.8,1759.7,1750.7,1743.7,1735.1,1728.8,1721.8,1714.7,1710.8,1717.2,1715.4,1715.1,1702.2,1706.6,1705.9,1705.6,1703.1,1697.9,1692.9,1685.9,1678.4,1673.3,1665,1655.2,1640,1634.5,1624,1608.2,1599,1597.8,1583.9,1582,1574.8,1569.4,1563.5,1551.6,1552.3,1544.7,1538.5,1532.8,1518.8,1517.5,1510.1,1502.1,1495.4,1490,1481.8,1469.1,1460.4,1452,1442.2,1433.2,1422.7,1412.2,1400.4,1393.6,1382.4,1370,1357.3,1342.6,1331.1,1320.5,1311.3,1302.7,1292.1,1285.5,1275.4,1266.7,1264.9,1258.5,1250.8,1238.3,1230.5,1222.2,1212.7,1202.7,1191.6,1180,1168.7,1155,1143.5,1135.7,1118.6,1103.5,1095.8,1085.2,1075.8,1066,1056.3,1047.3,1037.8,1029.4,1020.9,1013.6,1006.6,995.55,988.14,981.13,974.45,967.91,960.24,956.93,949.06,940.31,932.64,922.3,912.83,897.78,887.68,877.19,866.87,857.27,848.39,841.08,832.61,829.42,821.7,815.3,804.06,797.22,789.65,782.55,775.55,769.6,762.64,756.11,750.1,744.41,738.98,735.68,728.68,723.45,717.99,712.05,706.86,700.93,694.03,687.58,679.85,672.75,666.43,661.31,652.11,644.86,638.18,631.46,625.16,618.2,612.2,605.55,599.34,593.16,586.98,580.35,574.3,568.26,560.38,555.97,549.08,543.38,539.71,535.08,530.15,525.28,520.28,515.4,510.24,504.66,499.91,494.17,489.19,483.76,478.02,471.79,465.59,458.71,452.94,445.9,439.32,432.95,426.68,420.36,414.25,408.2,402.59,396.86,391.27,385.11,380.35,374.51,369.37,364.58,359.39,354.67,350.68,346.45,342.5,338.46,334.55,330.86,327.55,323.87,319.94,316.33,312.12,308.3,304.47,299.95,295.99,291.62,287.25,282.91,278.41,273.79,268.98,264.03,259.38,255.33,251.04,246.8,242.97,239.02,234.95,231.44,227.71,223.93,220.24,216.73,213.11,209.58,205.87,202.37,198.79,195.15,191.31,187.66,184.28,180.59,177.32,173.83,170.39,166.47,163.12,159.7,156.18,152.75,149.6,146.33,142.93,139.84,136.77,133.72,130.65,127.76,124.97,121.97,119.34,116.55,113.98,111.25,108.86,106.43,103.94,101.6,99.334,97.22,94.999,92.879,90.691,88.5,86.27,84.039,82.109,79.92,78.259,76.357,74.769,73.445
1.0211,1.0863,1.2197,1.2356,1.3577,1.3899,1.463,1.5316,1.6164,1.6169,1.6522,1.7765,1.8115,1.8694,1.9355,2.0005,2.0257,2.1075,2.1087,2.1522,2.2746,2.2772,2.2963,2.3794,2.4138,2.4857,2.4622,2.5075,2.5253,2.6096,2.6249,2.6525,2.7334,2.7467,2.8197,2.9244,2.9273,3.0251,3.0833,3.1557,3.2873,3.4328,3.6128,3.7855,4.0709,4.4142,4.8369,5.4153,6.085,6.9611,8.239,9.5747,11.281,13.499,15.991,18.902,21.969,25.378,28.698,32.213,35.733,39.476,43.347,47.43,50.908,55.094,59.676,63.88,68.011,71.701,76.114,80.275,84.504,88.722,92.876,97.036,101.05,105.42,109.97,114.63,119.58,124.73,129.93,135.18,140.63,145.88,151.37,156.88,162.81,168.73,174.97,181.17,187.69,194.01,200.64,207.63,214.19,221.89,229.44,235.12,242.44,249.56,256.69,264.31,272.11,280.26,288.54,296.94,306.29,314.84,323.62,331.52,339.69,348.17,357.03,366.69,376.68,387.15,397.6,409.63,419.87,430.21,440.01,447.88,458.09,468.36,478.92,490.64,502.58,514.69,527.72,537.67,547.66,557.4,567.07,575.11,586.34,597.3,609.16,620.85,631.07,641.61,651.61,661.14,671.44,684.15,694.15,701.91,712.16,722.76,734.69,746.76,757.9,769.99,781.01,791.2,801.08,811.06,825.18,831.03,843.53,860.34,874.09,888.21,901.47,911.81,925.97,936.19,945.09,953.89,963.29,970.69,981.53,992.8,1004.6,1017.7,1028.3,1038.4,1047,1055.2,1063.5,1075.6,1082.9,1084.7,1091.4,1098.7,1106.2,1113.8,1121,1128.4,1136,1143.4,1151.1,1157.9,1165.6,1167.6,1172.3,1182.5,1187.9,1193.8,1197.7,1211.2,1221.6,1232.1,1243.1,1253.7,1263.4,1266.7,1274,1280.3,1287.7,1294.8,1304.7,1316.5,1329.2,1350.3,1368.6,1385.6,1403.7,1414.6,1429.5,1444.1,1458.3,1471.6,1486.3,1500.5,1514.3,1529.9,1548.2,1571.2,1580.6,1595.4,1605.7,1616.1,1626.4,1635.7,1644.6,1654.1,1661.7,1669.6,1677,1680.9,1679.5,1682.4,1685.4,1688.9,1692.7,1697.9,1703.4,1716.5,1723.4,1733.8,1746.8,1757.6,1762.3,1769.4,1772.9,1774.2,1774.7,1771.9,1769.5,1768.6,1774.2,1776.8,1782.3,1787,1787.6,1794.7,1803,1811.6,1817.1,1822.9,1825.1,1823.2,1817,1812.3,1813.7,1809.4,1801.6,1801,1802.6,1806.7,1812.3,1816.3,1820.1,1821.9,1824.2,1827.5,1836.4,1830.9,1830.5,1827.8,1824.6,1824.5,1822.1,1820.7,1819.8,1816.8,1816.9,1819.4,1820.4,1819.9,1812.4,1811.2,1816.9,1815.9,1813,1811.5,1803.3,1809.2,1810.2,1812,1814.1,1815,1809.3,1809.4,1808.2,1804.4,1802.2,1798,1795.9,1790.2,1792,1786.7,1781.7,1778.9,1770.5,1769.1,1768.9,1770.8,1771.4,1771.8,1772.5,1769.7,1774.4,1770.1,1765.2,1758.4,1743.4,1733.2,1724,1716.9,1709,1703,1695.8,1688.6,1684.8,1691.1,1689.5,1688.9,1676.7,1681.8,1680.3,1679.7,1677.3,1672.8,1667.6,1660.5,1653.1,1648,1639.8,1630,1615.6,1610,1599,1583.6,1574.3,1573.4,1559.1,1557.3,1550.9,1544.9,1538.9,1527.8,1527.9,1520.9,1514.5,1509.1,1495.1,1494.8,1487.1,1478.7,1472.6,1467.4,1458.7,1446.2,1438.1,1429.7,1419.6,1411.1,1400,1389.8,1378.5,1371.3,1360.7,1348.3,1336.6,1321.8,1310.4,1300.4,1290.6,1282.4,1272,1265.3,1255.4,1247.1,1245.7,1238.7,1231.2,1219.1,1211.3,1203,1193.3,1184,1173.6,1162,1150.3,1137.2,1126.2,1118.3,1101.5,1086.3,1079,1068.2,1058.8,1049.2,1039.4,1030.7,1021.1,1012.4,1004.3,997.22,990.3,979.46,972.47,965.23,958.89,952.28,944.72,941.65,934.01,925.62,916.83,906.96,897.5,882.8,872.6,862.75,852.58,843.32,834.58,827.18,819.28,816.17,808.41,802.07,791.51,784.21,777.19,770.1,763.29,757.43,750.69,744.65,738.43,732.5,727.35,724.03,717.41,711.99,706.55,700.6,695.19,689.21,682.84,676.36,669.08,662.2,655.75,650.65,641.48,634.97,628.01,621.41,615.4,608.45,602.38,595.66,589.62,583.54,577.36,570.66,564.76,558.97,551.15,546.95,540.01,534.49,530.87,525.95,520.97,515.98,511.2,506.04,501.47,496.32,491.54,485.95,481.04,475.69,470.18,464.04,458,451.27,445.06,438.67,432.24,426.11,419.75,413.55,407.94,401.66,395.91,390.55,384.82,378.83,373.85,368.43,363.41,358.73,353.57,349.26,345.14,340.98,337.28,333.31,329.44,325.85,322.44,318.99,314.93,311.71,307.38,303.51,299.59,295.17,291.21,287.11,282.62,278.23,273.98,269.34,264.9,260.08,255.43,251.3,247.04,243.07,239.06,235.26,231.27,227.66,224,220.39,216.86,213.26,209.7,206.26,202.57,199.11,195.67,191.68,188.04,184.73,181.11,177.78,174.41,170.89,167.53,163.94,160.38,157.1,153.6,150.34,147.03,143.92,140.64,137.57,134.61,131.54,128.41,125.84,122.95,120.26,117.32,114.69,112.01,109.5,107.11,104.73,102.32,99.973,97.862,95.656,93.578,91.346,89.205,87.048,84.89,82.851,80.72,78.701,76.954,75.186,73.483,72.32
1.0213,1.1572,1.2303,1.3068,1.3912,1.4418,1.4973,1.5595,1.644,1.6515,1.6946,1.8191,1.8978,1.9608,1.9907,2.0408,2.1194,2.1365,2.1642,2.2174,2.3081,2.3067,2.3917,2.4343,2.4417,2.5541,2.5397,2.6312,2.5917,2.6208,2.703,2.6644,2.7282,2.8197,2.8501,2.894,2.9779,3.041,3.1007,3.249,3.2767,3.4467,3.6292,3.762,4.0886,4.4486,4.8924,5.4393,6.1819,7.1372,8.4724,9.8539,11.677,13.865,16.457,19.555,22.814,26.152,29.622,33.17,36.749,40.606,44.616,48.819,52.427,56.656,61.383,65.68,69.755,73.694,78.149,82.341,86.605,90.871,95.097,99.353,103.52,107.88,112.51,117.42,122.52,127.69,132.99,138.19,143.81,149.03,154.54,160.37,166.28,172.36,178.68,185.33,191.92,198.59,204.97,211.96,218.51,226.69,234.1,240.03,247.38,254.56,261.84,269.7,277.68,285.91,294.49,303.18,312.42,321.43,330.52,338.18,346.58,355.15,364.61,374.65,384.69,395.5,405.91,417.96,428.35,439.01,448.95,457.22,467.38,477.82,488.77,500.57,512.97,525.01,538.21,548.13,558.21,567.87,577.83,586.26,597.25,608.77,620.51,631.96,642.64,653.06,663.22,672.96,683.67,696.78,706.79,714.65,724.69,735.55,747.63,759.74,771,783.41,794.27,804.84,814.79,825.58,839.68,845.3,858.27,875.46,889.33,903.8,917,927.42,941.88,951.67,960.85,969.91,979.2,986.58,997.58,1008.9,1020.8,1034.2,1044.8,1054.9,1063.7,1071.9,1080,1092.3,1099.4,1101.4,1108.2,1115.4,1122.5,1130.6,1137.9,1145.6,1152.7,1160.3,1167.8,1175.2,1182.7,1184.6,1189.5,1200.2,1205.3,1211.2,1215.2,1229.1,1239.4,1250.1,1261.2,1271.6,1281.7,1285.2,1291.9,1298.5,1306.1,1313.4,1323.9,1336.1,1349.1,1370.6,1389.1,1406.6,1424.6,1435.8,1451.3,1465.8,1480.1,1493.6,1508.6,1522.9,1537,1553.1,1571.6,1594.4,1604.1,1619.1,1629.3,1639.8,1650.8,1660,1668.9,1678.8,1686.4,1694.3,1701.8,1705.8,1704.6,1706.9,1710.2,1714.2,1718.3,1723,1728.7,1741.2,1749,1759.9,1772.6,1783.7,1788.3,1795.2,1798.3,1800.1,1800.5,1797.5,1795.4,1794.1,1800.6,1802.7,1808.5,1813.2,1813.2,1820.4,1828.7,1837.8,1843.8,1849,1851.2,1849.4,1843.3,1838.5,1839.9,1835,1826.8,1826.5,1828.4,1832.6,1837.9,1841.9,1845.9,1847.8,1850,1853.6,1862.5,1856.8,1856.7,1853.9,1850.7,1850.1,1847.6,1846.5,1844.9,1842.6,1842.2,1845.5,1845.9,1845.9,1838.2,1836.2,1842.6,1841.2,1838.8,1836.2,1828.2,1834.3,1835.8,1838.1,1838.9,1840.6,1834.5,1834.4,1833.3,1830.1,1827.7,1823.4,1821,1814.9,1816.9,1811.5,1806.6,1803.5,1794.7,1793.5,1793.1,1794.7,1795.6,1796.4,1796.9,1793.5,1798.5,1794.5,1789.1,1782.3,1767.4,1757.2,1747.6,1740.3,1732.6,1726.4,1719.1,1711.8,1707.9,1714.1,1712.7,1712.6,1699.4,1704.8,1703.2,1702.9,1700.4,1695.4,1690.1,1683.1,1675.8,1670.7,1662,1652.5,1637,1631.2,1620.5,1605.1,1595.6,1594.8,1580.6,1578.8,1571.9,1566.3,1560.8,1548.9,1549.1,1542.2,1535.9,1530.2,1516.4,1515.7,1508,1499.5,1492.9,1487,1478.7,1466,1457,1449.1,1438.9,1430.1,1419.6,1408.8,1396.9,1390.2,1379.4,1367.3,1354.7,1339.6,1328.4,1317.7,1308.7,1299.4,1289.3,1282,1272,1263.7,1261.6,1254.9,1247,1235,1227.4,1218.7,1209.2,1199.7,1188.7,1176.9,1165.3,1152.1,1140.6,1132.9,1115.7,1100.4,1092.9,1082.2,1072.7,1063.2,1053.4,1044.9,1035.2,1026.5,1018.3,1011,1004,992.9,985.62,978.47,971.91,964.97,957.42,954.24,946.88,938.03,929.82,919.6,910.02,894.92,884.8,874.7,864.02,854.93,845.64,838.53,830.11,826.95,819.12,812.65,801.73,794.8,787.61,780.14,773.24,767.48,760.56,754.12,748.24,742.05,736.91,733.96,726.76,721.28,715.94,710.16,704.44,698.45,692.01,685.38,677.9,670.6,664.4,659.29,649.94,643.06,636,629.27,623.39,616.35,610.12,603.63,597.33,591.3,585.15,578.6,572.6,566.58,558.75,554.56,547.43,541.75,538.39,533.4,528.65,523.43,518.77,513.47,509.07,503.35,498.62,492.93,487.83,482.46,476.58,470.55,464.47,457.57,451.7,444.78,438.24,432.11,425.59,419.56,413.56,407.21,401.58,396,389.95,384.46,379.34,373.7,368.3,363.62,358.62,354.1,350.09,345.61,341.81,337.78,334.14,330.3,326.99,323.23,319.36,315.82,311.71,307.63,303.78,299.31,295.29,290.88,286.7,282.22,277.81,273.01,268.49,263.56,258.75,254.59,250.2,246.13,242.16,238.42,234.36,230.51,226.96,223.18,219.55,216.02,212.54,209.02,205.38,201.77,198.3,194.51,190.58,187.24,183.64,180.17,176.87,173.25,169.73,166.13,162.79,159.32,155.78,152.56,149.14,145.74,142.65,139.47,136.28,133.19,130.29,127.36,124.7,121.64,118.92,116.14,113.58,110.99,108.6,105.99,103.59,101.27,99.128,96.873,94.683,92.607,90.487,88.244,85.987,83.96,81.641,79.71,77.911,76.206,74.492,73.308
1.0615,1.1345,1.2161,1.3168,1.3973,1.4926,1.5053,1.606,1.6662,1.6551,1.7404,1.7957,1.8778,1.9386,1.9977,2.0169,2.1041,2.1053,2.2469,2.221,2.2994,2.3473,2.3683,2.4337,2.4294,2.5981,2.5117,2.5721,2.5901,2.6374,2.6401,2.7147,2.7851,2.8558,2.9031,2.9118,2.9985,3.0412,3.1155,3.2469,3.2723,3.5076,3.5747,3.7763,4.0963,4.4562,4.8131,5.432,6.1695,7.0606,8.4117,9.7902,11.482,13.721,16.302,19.195,22.483,25.834,29.235,32.802,36.393,40.099,43.975,48.122,51.818,56.014,60.648,64.801,69.011,72.964,77.449,81.386,85.604,89.947,94.088,98.401,102.63,106.8,111.48,116.36,121.36,126.43,131.75,137.02,142.62,147.91,153.26,158.93,164.82,170.81,177.17,183.76,190.04,196.52,203.35,210.2,216.58,224.69,231.97,237.78,245.07,252.52,259.74,267.2,275.38,283.44,291.84,300.65,309.69,318.77,327.89,335.44,343.76,352.25,361.52,371.52,381.59,392.04,402.45,414.43,424.7,435.38,445.17,453.6,463.59,473.94,484.78,496.64,508.68,520.9,534.21,544.09,554.12,563.56,573.48,581.98,592.96,604.08,615.96,627.53,637.89,648.67,658.76,668.35,678.61,691.79,701.87,709.78,719.99,730.52,742.55,754.76,766.11,778.29,789.32,799.92,809.76,820.4,834.37,839.81,852.94,869.93,883.74,898.41,911.86,922.05,936.6,946.56,955.65,964.54,973.65,981.45,992.27,1003.7,1015.5,1029.1,1040,1050.1,1058.6,1066.7,1075.1,1087,1094.7,1096.5,1103.1,1110.5,1118.1,1126,1133.5,1140.8,1147.6,1155.2,1163.2,1170.3,1177.8,1179.3,1184.7,1195,1200.6,1206.2,1210,1223.8,1234.3,1244.8,1256.1,1266.4,1276.3,1279.9,1286.7,1293.1,1300.9,1308.2,1318,1330.1,1343.4,1364,1382.6,1399.9,1418.4,1429.4,1444.6,1459,1473.3,1486.6,1501.6,1516,1530,1545.9,1564,1587.2,1596.9,1611.4,1622.1,1632.7,1643.3,1652.6,1661.7,1671.7,1678.8,1686.8,1693.9,1698.5,1696.6,1699.6,1702.7,1706.3,1710.5,1715.4,1721.4,1734.2,1741.6,1752.1,1764.5,1776.1,1780.6,1787.6,1790.6,1792.7,1793,1790.6,1788.3,1786.6,1792.7,1795.3,1800.8,1805.7,1805.9,1813.4,1821.4,1829.9,1836.1,1841.6,1844,1842.4,1836.2,1831.5,1833.2,1828.1,1820.5,1819.8,1821.3,1826,1831.1,1835.7,1838.9,1841.1,1843.1,1846.6,1856.2,1850.5,1849.6,1847,1843.9,1844.2,1841.2,1840.2,1838.6,1836.6,1836.3,1838.9,1839.9,1839.1,1832.2,1830.6,1836.2,1835.2,1832.6,1830.6,1822.2,1828.5,1830.3,1831.8,1833.3,1834.8,1829.1,1828.8,1827.7,1823.8,1821.9,1817.4,1815,1809.7,1811.6,1806.5,1801.1,1797.7,1789.5,1788.2,1787.6,1790,1790.3,1791.1,1790.8,1788.7,1793,1789.3,1784.1,1777.6,1762.5,1752.1,1742.8,1735.8,1727.9,1721.4,1714.7,1707.3,1703.3,1709.5,1708.1,1707.5,1694.6,1699.6,1698.1,1698.2,1695.5,1690.9,1685.2,1678.2,1671.2,1666.4,1657.6,1647.6,1632.8,1627.4,1616.5,1601,1591.2,1590.8,1576.9,1575.2,1567.9,1562.7,1556.6,1545,1545.2,1537.9,1531.8,1525.9,1511.5,1510.9,1503.1,1494.8,1487.8,1482.9,1474.4,1461.9,1453.3,1445.2,1435.3,1426.3,1416,1405.1,1393.3,1386.8,1375.6,1363.5,1351.3,1336.5,1325.1,1314.5,1305.2,1296.2,1286.1,1279.1,1269.2,1260.9,1259,1252.3,1244.6,1232.6,1224.9,1216.3,1206.8,1197.1,1186.3,1174.6,1163.2,1149.9,1138.3,1130.5,1113.3,1098.3,1090.5,1080.2,1070.5,1061.2,1051.3,1042.3,1033,1024.6,1016,1008.7,1001.9,990.82,983.34,976.45,969.69,963.32,955.27,952.56,944.86,936.31,927.91,917.92,908.55,893.52,883.21,873.23,862.76,853.15,844.37,837,828.95,825.56,817.93,811.34,800.5,793.64,786.15,778.75,772.05,766.2,759.28,752.8,746.72,740.77,735.45,732.37,725.74,719.93,714.58,708.68,703.25,697.53,690.71,684.12,676.71,669.71,663.32,658.1,648.84,642.03,635.03,628.6,622.2,615.27,609,602.67,596.6,590.34,584.34,577.64,571.42,565.72,557.58,553.39,546.4,540.96,537.41,532.32,527.55,522.55,517.63,512.61,507.78,502.21,497.14,491.45,486.63,481.25,475.51,469.41,463.23,456.23,450.39,443.81,437.06,430.68,424.27,418.09,412.21,406.15,400.42,394.61,388.9,383.09,378.27,372.33,367.06,362.44,357.46,352.87,348.9,344.47,340.82,336.59,332.91,329.23,325.54,322,318.08,314.45,310.37,306.44,302.53,298.16,294.06,290.05,285.59,281.22,276.7,272.01,267.45,262.6,257.89,253.8,249.57,245.37,241.38,237.55,233.64,229.94,226.26,222.49,218.94,215.49,211.9,208.39,204.64,201.08,197.59,193.87,190.17,186.52,183.21,179.46,176.24,172.63,169.27,165.6,162.1,158.59,155.04,151.73,148.46,145.14,141.97,138.82,135.67,132.72,129.6,126.69,124.02,121.07,118.24,115.58,113.05,110.2,107.88,105.38,103.01,100.76,98.545,96.274,94.028,92.103,89.938,87.673,85.487,83.401,81.368,79.193,77.287,75.691,74.103,72.726
1.0151,1.1492,1.2217,1.284,1.3653,1.4326,1.4886,1.5713,1.5944,1.6592,1.7171,1.7731,1.8692,1.9274,1.9697,2.018,2.0703,2.1497,2.1309,2.1846,2.2906,2.2497,2.3925,2.3874,2.4571,2.5282,2.5022,2.597,2.5929,2.5973,2.6612,2.6993,2.7385,2.783,2.7988,2.8913,2.9349,2.9828,3.1339,3.1813,3.3355,3.4078,3.6129,3.7747,4.0944,4.3682,4.803,5.3617,6.2006,7.0485,8.2864,9.6531,11.368,13.615,16.105,19.1,22.265,25.517,28.984,32.384,35.962,39.645,43.67,47.667,51.134,55.334,59.877,64.208,68.301,72.007,76.483,80.676,84.775,88.998,93.185,97.427,101.37,105.62,110.34,115.11,119.95,125.05,130.26,135.4,140.96,146.23,151.68,157.25,163.11,169.12,175.28,181.77,188.07,194.51,201.18,208.07,214.53,222.3,229.73,235.65,242.71,249.91,257.04,264.58,272.59,280.71,289.04,297.77,306.67,315.28,324.42,332.02,340.4,348.95,357.9,367.51,377.6,388.24,398.6,410.51,420.76,431.26,441.15,448.96,459,469.34,480.39,492.01,503.99,515.95,529.23,539.04,548.88,558.75,568.5,576.6,587.69,598.88,610.63,621.95,632.42,643.1,653.02,662.75,673.32,686.03,695.98,703.95,713.94,724.87,736.53,748.75,759.99,772.17,782.85,793.54,803.71,813.83,827.89,833.69,846.48,863.38,877.26,891.09,904.63,914.96,929.52,939.12,948.62,957.59,966.91,974.13,985.36,996.67,1008.3,1021.5,1031.8,1042.5,1050.6,1059.2,1067.2,1079.2,1086.6,1088.7,1095.3,1102.4,1110.3,1117.9,1125.1,1132.5,1139.4,1147.4,1155,1162.4,1170,1171.6,1176.3,1186.7,1192.4,1198.1,1201.8,1215.8,1226.6,1236.7,1248,1258.2,1268.1,1271.5,1278.9,1284.7,1292.7,1299.9,1309.6,1321.3,1334.8,1356,1374.3,1391.6,1409.6,1420.8,1435.5,1449.7,1464,1477.5,1492.2,1506.7,1520.9,1536.5,1554.5,1577.3,1587.2,1601.6,1612.3,1622.6,1633.1,1642.7,1650.8,1660.6,1668.7,1676.2,1683.9,1688.1,1686.4,1689.5,1692.7,1696.1,1700.1,1704.7,1711.2,1723.6,1730.9,1741.8,1754.3,1765.3,1769.9,1776.9,1780.3,1781.8,1782.4,1779.8,1777.3,1775.7,1782.2,1784.9,1790.6,1795.3,1795.8,1803.1,1810.9,1819.6,1825.6,1831,1833,1831.1,1825.4,1820.7,1821.8,1817.1,1809.3,1808.8,1810.6,1815.4,1820.6,1824.7,1828.5,1830.5,1832.7,1836.2,1845.2,1839.6,1839.1,1836.5,1833.8,1833.2,1830.7,1829.4,1828.2,1825.8,1825.4,1828.5,1829,1828.6,1821.8,1819.8,1826,1824.6,1822.1,1820,1811.7,1817.9,1818.9,1820.9,1822.4,1824.1,1818.3,1818.3,1817.3,1814.1,1811.3,1807.2,1805.1,1799.3,1800.7,1796.2,1791.3,1787.9,1779.4,1778.3,1778.2,1779.9,1780.4,1781,1781.6,1778.8,1783.5,1779.7,1773.9,1767.7,1752.8,1742.6,1733.6,1726.2,1718.3,1712.1,1705.1,1697.9,1694.1,1700.7,1699.2,1698.3,1685.9,1691,1689.6,1689.2,1686.6,1681.9,1676.4,1670.3,1662.8,1657.3,1649.2,1639,1624.3,1618.5,1608.1,1592.7,1583,1581.8,1568.2,1565.9,1559.4,1553.3,1548,1536,1536.7,1529.4,1523.6,1517.4,1503.8,1503,1495.6,1487.5,1480.7,1475.7,1467.3,1454.2,1445.7,1437.4,1427.9,1418.6,1408.2,1397.5,1385.9,1379,1368.3,1356.3,1344.2,1329,1317.8,1307.4,1298.3,1289.2,1279,1272.4,1262.2,1254,1251.8,1245.2,1238,1225.4,1217.9,1209.5,1200.4,1190.5,1179.7,1167.8,1156.8,1143.8,1132,1124.5,1107.5,1092.2,1085.1,1074.3,1064.9,1055.1,1045.5,1036.6,1027.3,1018.8,1010.5,1003.3,996.48,985.4,978.36,971.49,964.81,957.98,950.54,947.25,939.82,931.11,922.9,912.9,903.37,888.5,878.41,868.19,857.84,848.45,839.43,832.23,824,821.11,813.2,806.72,796.09,789.1,781.86,774.38,767.79,762.33,755.4,748.78,742.88,736.96,731.62,728.52,721.7,716.27,711.04,704.9,699.55,693.57,687.04,680.79,673.35,665.99,660.12,654.62,645.51,638.92,631.87,625.03,619.07,611.96,605.99,599.35,593.26,586.99,581.19,574.38,568.49,562.52,554.47,550.5,543.48,538.03,534.48,529.63,524.71,519.56,514.77,509.49,504.95,499.52,494.69,489.04,484.19,478.79,472.99,467.25,460.81,454.04,447.96,441.34,434.77,428.87,422.2,416.2,410.14,404.09,398.48,392.82,386.9,380.95,376.01,370.72,365.52,360.59,355.86,351.18,347.05,342.76,339,335.17,331.21,327.58,324.22,320.46,316.84,313.16,308.87,304.94,301.13,296.83,292.68,288.49,284.3,279.85,275.42,270.68,266.07,261.33,256.83,252.37,248.3,244.2,240.37,236.53,232.53,228.96,225.23,221.33,218.07,214.39,210.67,207.45,203.63,200.32,196.64,192.77,189.16,185.63,182.17,178.8,175.34,171.81,168.47,164.83,161.32,157.89,154.43,151.17,147.69,144.58,141.43,138.11,135.05,132.12,129.06,126.14,123.42,120.52,117.77,115.16,112.42,109.85,107.48,104.91,102.69,100.23,98.076,95.985,93.581,91.735,89.408,87.179,85.241,83.059,80.975,78.926,77.161,75.331,73.696,72.653
1.0276,1.1412,1.2287,1.3026,1.3847,1.4363,1.5303,1.5365,1.5903,1.6606,1.6879,1.7752,1.8483,1.91,1.9193,1.9946,2.0494,2.1106,2.1972,2.1813,2.3103,2.3008,2.3374,2.4286,2.4008,2.5623,2.4969,2.521,2.5405,2.6386,2.6608,2.6674,2.7467,2.7906,2.813,2.8131,2.9704,3.008,3.1025,3.2007,3.2816,3.4432,3.6232,3.7843,4.0891,4.4319,4.8833,5.4955,6.2614,7.1865,8.5901,9.8634,11.68,13.969,16.47,19.552,22.797,26.286,29.782,33.422,36.873,40.678,44.728,48.897,52.576,56.723,61.495,65.831,69.967,73.866,78.365,82.595,86.855,91.221,95.286,99.746,103.75,108.24,112.87,117.88,122.92,128.16,133.53,138.77,144.49,149.85,155.25,161.05,166.96,173.08,179.48,186.17,192.7,199.27,205.93,212.78,219.41,227.27,234.89,240.98,248.15,255.53,262.86,270.51,278.64,286.95,295.25,304.13,313.48,322.49,331.39,338.94,347.58,356.25,365.55,375.49,385.68,396.19,406.66,418.86,429.18,439.78,449.81,458.19,468.22,478.65,489.77,501.49,513.71,526.05,539.04,549.16,559,568.55,578.75,587.15,598.02,609.27,621.5,632.66,643.33,653.8,664.13,673.95,684.72,697.27,707.71,715.45,725.92,736.59,748.76,761.15,772.18,784.43,795.58,806.03,816.23,826.94,840.99,846.76,860.19,877.26,891.26,905.78,919.54,929.18,943.94,953.8,962.65,971.75,981.31,988.5,999.98,1011.2,1023.2,1036.3,1047,1057.1,1065.8,1073.9,1082.2,1094.3,1101.8,1103.3,1110.1,1117.5,1125.3,1132.9,1139.6,1147.7,1154.6,1162.1,1170.1,1177.3,1185.1,1186.4,1191.7,1202.1,1207.7,1213.7,1217.2,1231.6,1242.2,1253.1,1263.7,1274.8,1284.1,1287.8,1294.9,1301.2,1309.2,1316.1,1326.4,1338.9,1352.1,1373.3,1392.5,1409.8,1428.2,1439.4,1454.1,1468.5,1483.3,1496.7,1511.6,1526.2,1540.3,1555.7,1574.5,1597.7,1607.2,1621.7,1632.4,1642.7,1653.2,1662.8,1671.3,1681.1,1689,1696.5,1704.4,1708.5,1706.7,1710.1,1713.1,1716.7,1720.4,1725.3,1731.5,1744.2,1751.8,1762.8,1775.8,1786.9,1791.3,1798.3,1801.5,1803,1803,1800.8,1798.1,1796.4,1802.9,1805.6,1811,1815.8,1816.2,1824.1,1832,1840.7,1847.1,1851.8,1854.3,1852.4,1846.3,1841.2,1842.8,1837.8,1829.8,1829.4,1831,1835.8,1841,1844.7,1849.7,1851.4,1853.7,1857,1865.9,1860.2,1860.2,1856.3,1853.9,1853.7,1850.7,1849.6,1848.2,1845.9,1845.4,1848.4,1849.1,1849,1841.3,1839.6,1845.6,1844.1,1842,1839.9,1831.9,1837.7,1838.5,1840.8,1842.4,1844.3,1837.9,1837.9,1836.7,1833,1831.2,1827.2,1824.5,1818.6,1820.6,1815.5,1810.6,1807.9,1799.1,1797.8,1797.5,1799.4,1799.8,1800.5,1801,1798,1802.6,1798.4,1793.3,1786.5,1771.9,1761.2,1752.4,1745.2,1737.5,1730.9,1723.8,1716.1,1712.7,1718.6,1717.6,1717,1704,1709.1,1708,1707.4,1705.1,1700.3,1695,1688.3,1680.8,1675.2,1666.7,1656.4,1641.5,1636,1625.6,1609.6,1600.5,1598.8,1585.6,1583.6,1576.4,1571.4,1565.4,1553.5,1554,1546.1,1540.4,1534.2,1520.3,1519.3,1511.7,1503.4,1496.7,1491,1482.8,1469.8,1461.7,1453,1442.9,1434.4,1423.1,1412.7,1400.9,1394.3,1383.5,1371,1358.7,1343.5,1332.4,1321.7,1312.4,1303.3,1293.2,1285.5,1275.4,1267.2,1264.8,1258.6,1250.8,1238.4,1230.6,1221.9,1212.7,1203.2,1191.4,1180.1,1168.6,1155.6,1143.6,1135.8,1118.9,1103.6,1096.1,1085.3,1075.7,1066.4,1056.3,1047.8,1038.3,1030,1021.2,1014.2,1007.3,996.18,988.7,981.31,975.05,968.58,960.35,957.38,949.64,941.42,932.64,922.94,913.02,898.01,887.75,877.38,866.61,857.49,848.28,841.1,832.5,829.23,821.89,815.21,804.32,797.18,789.48,782.64,775.4,769.94,762.61,756.34,750.34,744.48,738.93,735.76,729.04,723.46,718.26,712.36,706.68,700.97,694.11,687.78,679.92,672.8,666.8,661.41,652.13,645.39,638.45,631.43,625.4,618.25,612.37,605.6,599.37,593.13,587.04,580.58,574.45,568.55,560.42,556.27,549.03,543.54,540.25,535.11,530.34,525.62,520.54,515.14,510.77,504.84,500.08,494.41,489.45,483.89,478.37,472.11,465.77,458.96,452.96,446.04,439.58,433.38,426.5,420.29,414.38,408.18,402.75,396.84,390.98,384.96,379.95,374.71,369.16,364.28,359.44,354.72,350.76,346.42,342.6,338.42,334.71,331.04,327.5,323.99,319.96,316.52,312.44,308.4,304.26,299.85,295.76,291.44,287.23,282.74,278.19,273.63,269.01,264.05,259.24,254.95,250.76,246.5,242.81,238.89,234.77,231.2,227.4,223.67,220.12,216.52,212.96,209.37,205.75,202.12,198.62,194.84,190.95,187.69,184.24,180.62,177.1,173.5,170.05,166.47,162.97,159.51,156.01,152.72,149.37,145.94,142.87,139.56,136.44,133.42,130.3,127.45,124.57,121.72,118.91,116.16,113.58,110.95,108.51,106.07,103.76,101.35,99.15,96.961,94.652,92.537,90.526,88.147,86.156,83.893,81.932,79.875,77.801,76.146,74.547,73.217
1.0156,1.0956,1.2369,1.2707,1.3239,1.433,1.479,1.5146,1.6162,1.6692,1.6885,1.7437,1.8442,1.906,1.9777,2.0283,2.1015,2.1045,2.1299,2.2556,2.2721,2.3355,2.3308,2.4122,2.414,2.5111,2.4611,2.5145,2.5665,2.6442,2.6304,2.6251,2.7372,2.7564,2.7606,2.8134,2.9244,2.9997,3.046,3.1753,3.2697,3.3885,3.5947,3.7597,3.9947,4.3518,4.7785,5.2865,6.1116,7.0401,8.2765,9.513,11.323,13.392,15.883,18.759,21.787,25.273,28.672,32.069,35.459,39.151,43.055,47.066,50.647,54.705,59.137,63.482,67.544,71.238,75.651,79.838,83.986,88.297,92.344,96.561,100.46,104.93,109.42,114.06,118.99,123.92,129.09,134.2,139.92,145.1,150.48,156.06,161.6,167.77,173.72,180.13,186.66,192.99,199.43,206.48,212.78,220.55,227.93,233.64,240.89,248.11,255.1,262.58,270.5,278.63,286.86,295.38,304.22,312.97,321.81,329.63,337.68,346.22,355.17,364.62,374.3,384.85,395.21,407.23,417.53,427.71,437.54,445.44,455.21,465.36,476.52,488.26,499.93,511.66,524.95,534.84,544.6,554.41,564.1,572.32,583.32,594.31,606.07,617.65,627.97,638.31,648.46,658.06,668.3,680.99,691.3,698.51,709.15,719.56,731.39,743.54,754.73,766.81,777.69,788.24,798.24,808.24,821.96,827.98,840.21,857.06,870.9,885.02,898.17,908.33,922.9,932.86,942.08,950.75,960.14,967.55,978.53,989.89,1001.5,1014.8,1025.4,1035.4,1043.6,1052,1060.2,1071.9,1080.1,1081.6,1088.2,1095.4,1103.2,1110.9,1118,1125.7,1132.5,1139.9,1147.6,1154.9,1162.3,1163.8,1168.7,1179.5,1184.5,1190.5,1194.2,1208,1218.2,1228.6,1239.3,1250.3,1259.8,1263.2,1270.1,1276.7,1284.2,1291.3,1300.9,1312.9,1325.4,1346.6,1364.4,1382.2,1400,1410.9,1425.4,1439.7,1454.1,1467.6,1482.5,1496.7,1510.3,1525.7,1543.8,1566.7,1576.4,1590.8,1601.1,1611.8,1622.2,1631.6,1640.6,1650.2,1657.8,1665.3,1673.1,1677.1,1675.7,1678.3,1681.7,1685.1,1688.8,1694.3,1699.9,1712.2,1719.7,1730.4,1743.1,1753.9,1758.5,1765.2,1768.8,1770.4,1770.5,1768.6,1765.8,1764,1770.4,1773.3,1778.8,1783.8,1783.8,1791.4,1799.5,1808,1813.8,1819,1821.6,1819.6,1813.6,1808.8,1810.4,1805.9,1798.1,1797.5,1799,1803.9,1808.8,1813.1,1816.8,1818.8,1820.8,1824.4,1832.9,1827.5,1827.7,1824.6,1821.6,1821.4,1819.3,1818.3,1816.9,1814,1814.3,1816.8,1817.4,1817.5,1810.3,1808.3,1814.3,1813.2,1810.5,1808.8,1800.6,1806.5,1807.7,1809.6,1811.5,1812.6,1807.2,1807.4,1806.4,1802.5,1800.6,1796.1,1794,1788.5,1789.6,1784.9,1780.2,1776.8,1768.2,1767.3,1766.9,1769.2,1769.5,1770.2,1770.5,1768,1772.2,1768.5,1763.1,1756.6,1741.6,1731.7,1722.6,1715.6,1707.6,1701.5,1694.5,1687.2,1683.7,1689.6,1688.2,1687.7,1674.9,1680.1,1678.8,1678.6,1676.4,1671.8,1666.3,1659.4,1652.1,1647.2,1639,1628.8,1614.5,1609.1,1597.9,1582.9,1572.9,1572.4,1558.3,1556.6,1549.6,1544,1538.1,1526.5,1527.5,1520.2,1514,1508.2,1494.7,1493.4,1486.2,1478.3,1471.5,1466.5,1457.9,1445.5,1436.8,1428.2,1418.7,1410.4,1399.7,1389.6,1377.9,1370.8,1360,1348.1,1336.3,1321.2,1309.7,1299.4,1290.4,1281.6,1271.3,1264.4,1254.8,1246.6,1244.9,1238.3,1231.1,1218.7,1211.2,1202.7,1193.3,1184,1173.1,1161.7,1150.8,1137.4,1126.1,1118.2,1101.1,1086.2,1079,1068.2,1059,1049.1,1039.3,1030.7,1021,1012.9,1004.4,997.66,990.65,979.75,972.4,965.39,959.55,952.64,945.06,941.71,934.54,925.8,917.41,907.46,898.1,883.09,873.04,863.05,853.21,843.83,834.73,827.66,819.62,816.34,808.72,802.47,791.85,784.71,777.67,770.47,763.48,758.17,751.09,744.69,738.75,732.96,727.48,724.43,717.78,712.18,706.98,701.24,695.68,689.72,683.37,676.76,669.52,662.5,656.38,650.99,641.98,635.37,628.42,621.62,615.55,608.62,602.77,596.25,590.3,583.99,577.82,571.34,565.3,559.23,551.47,547.57,540.7,534.95,531.48,526.36,521.37,516.51,511.57,506.51,501.75,496.48,491.82,486.19,481.4,476.03,470.38,464.37,458.22,451.44,445.37,438.71,432.32,426.16,419.79,413.75,407.88,401.74,395.96,390.38,384.62,378.89,373.97,368.41,363.21,358.7,353.85,349.24,345.04,340.87,337.3,333.22,329.54,325.56,322.27,318.66,314.87,311.15,307.2,303.38,299.49,295.13,291.1,286.78,282.58,278.2,273.99,269.53,264.79,259.97,255.29,251.09,246.88,242.92,239.08,235.35,231.18,227.61,223.9,220.34,216.84,213.21,209.69,206.28,202.53,199.17,195.57,191.89,188.15,184.66,181.31,177.68,174.52,170.98,167.39,163.93,160.51,156.98,153.35,150.38,146.96,143.85,140.35,137.41,134.32,131.29,128.41,125.54,122.73,119.71,117.15,114.44,111.85,109.22,106.79,104.36,101.95,99.787,97.462,95.314,93.21,91.233,89.107,86.761,84.765,82.7,80.561,78.524,76.696,74.827,73.22,72.051
1.0235,1.1687,1.1935,1.2683,1.3943,1.4462,1.5156,1.6087,1.6187,1.6888,1.7083,1.7174,1.8273,1.9365,2.0045,2.009,2.0621,2.1187,2.1801,2.2169,2.2703,2.3027,2.374,2.4186,2.4284,2.4478,2.5176,2.5403,2.6001,2.5333,2.6555,2.7392,2.7586,2.7698,2.8623,2.8677,2.9349,3.0481,3.1335,3.2186,3.2983,3.4405,3.6234,3.79,4.1157,4.4593,4.8943,5.4539,6.1167,7.0237,8.4087,9.717,11.485,13.663,16.241,19.202,22.347,25.807,29.217,32.615,36.194,40.045,44.063,48.087,51.678,55.857,60.543,64.668,68.871,72.723,77.099,81.181,85.409,89.762,93.82,97.992,102.26,106.42,111.01,115.87,120.84,125.85,131.24,136.31,141.95,147.28,152.69,158.39,164.04,170.02,176.47,182.71,189.18,195.81,202.38,209.24,215.6,223.68,231.19,237.08,244.05,251.54,258.76,266.51,274.33,282.5,290.74,299.53,308.65,317.54,326.73,334.32,342.6,350.98,360.41,370.16,380.14,390.64,400.86,413.15,423.4,433.72,443.77,452.07,462.01,472.28,483.09,494.84,507.1,519.15,532.72,542.72,552.56,562.12,572.1,580.07,591.22,602,613.81,625.23,635.89,646.34,656.48,666.43,676.45,689.51,699.58,706.98,717.29,727.82,739.39,751.59,763.08,775.02,786.19,796.21,806.51,816.86,830.63,836.46,848.79,865.95,879.82,893.98,907.15,917.82,932.44,942.41,951.72,960.81,969.96,977.04,987.86,999.5,1011.1,1024.4,1035.5,1045.9,1054.6,1062.6,1071.2,1083.1,1090.7,1092.3,1099.2,1106.5,1114.7,1121.6,1129.1,1137,1143.7,1151.1,1158.7,1166.2,1173.7,1174.6,1179.9,1190.4,1195.8,1201.6,1205.3,1218.6,1229.2,1239.8,1250.6,1261.3,1270.5,1274.7,1281.9,1288.2,1295.5,1302.3,1312.5,1324.3,1336.6,1357.6,1375.4,1392.8,1410.7,1421.9,1437,1452.1,1466.6,1480.2,1495.2,1508.8,1523.4,1539,1557,1580.4,1590.4,1604.4,1615.1,1625.9,1636.5,1646,1654.7,1664.9,1672.5,1680.4,1687.9,1691.9,1690.2,1693.2,1696.8,1700.4,1704.3,1709.2,1714.6,1727.1,1734.6,1745.4,1757.3,1768.9,1773.4,1780.4,1784.3,1785.6,1786.3,1784.1,1782.2,1780.4,1786.7,1789.3,1794.5,1799.2,1799.3,1806.6,1814.4,1823.4,1829.7,1834.8,1837.5,1836.7,1830.3,1826.2,1826.8,1822.5,1814.4,1814.3,1815.6,1820.4,1825,1829.4,1832.3,1834.7,1837,1840,1849.8,1844,1844.2,1841.8,1838.4,1838.6,1836.2,1834.9,1833.7,1831.1,1830.7,1832.9,1832.9,1833.4,1825.9,1824.8,1830.2,1829.1,1826.8,1825,1816.8,1823,1824.4,1826.1,1827.9,1828.4,1823.7,1823,1821.7,1819.1,1816.6,1812,1809.3,1804.3,1806,1800.9,1794.9,1791.9,1782.8,1781.7,1781,1783.5,1783.9,1783.8,1785,1782.2,1786.8,1783,1778.1,1771.3,1756.1,1746.1,1736.7,1729.6,1722.5,1715.2,1707.9,1701.4,1696.8,1703.1,1701.9,1700.5,1688.1,1693.1,1691.9,1691.6,1688.9,1684.9,1679.2,1672.1,1665.3,1660.2,1651.7,1642.2,1626.6,1621.8,1610.6,1595,1585.8,1584.9,1571.3,1569.2,1561.6,1556.6,1550.6,1539.2,1538.8,1532.2,1525.3,1519.9,1505.9,1504.8,1497.9,1489.8,1482.9,1477.3,1469.8,1456.7,1448.7,1440,1430.1,1421.3,1411,1399.9,1388.9,1382.1,1370.8,1358.6,1346.6,1331.8,1320.6,1310.5,1300.8,1291.9,1281.7,1275.3,1264.8,1257,1254.9,1248.8,1241.2,1229.3,1221.5,1213,1203.5,1193.7,1182.8,1171.4,1159.7,1146.7,1135.4,1127.6,1110.4,1095.4,1087.8,1077,1068.2,1058,1048.7,1039.2,1030.1,1021.2,1013.1,1005.8,998.73,987.65,980.17,972.95,966.64,959.98,952.43,949.31,942.15,933.29,924.96,915.4,905.55,890.86,880.61,870.33,860.3,850.72,842.18,834.84,826.58,823.06,815.8,808.83,798.14,791.27,784.02,776.67,769.91,764.11,757.27,751.07,744.75,738.89,733.62,730.14,723.58,718.25,712.37,706.47,701.16,695.37,688.52,682.1,674.95,667.9,661.31,656.17,646.89,640.33,633.31,626.39,620.02,613.54,607.54,601.05,594.94,588.57,582.45,575.84,569.84,563.73,556.03,551.45,544.81,539.11,535.55,530.6,525.55,520.56,515.74,510.77,505.87,500.48,495.29,489.96,484.88,479.3,473.73,467.65,461.47,454.62,448.92,441.93,435.3,429.31,422.95,416.63,410.85,404.82,398.85,393.22,387.53,381.7,376.42,371.26,366.15,361.51,356.57,351.74,347.64,343.4,339.48,335.6,331.81,327.87,324.63,320.91,316.95,313.31,309.14,305.45,301.64,297.09,293.25,288.73,284.52,280.16,275.95,271.24,266.79,261.84,257.22,253.06,248.69,244.65,240.79,236.93,233.07,229.24,225.44,221.66,218.42,214.78,211.36,207.79,204.08,200.43,197.11,193.3,189.68,186.02,182.52,179.05,175.63,172.09,168.59,165.06,161.67,158.07,154.61,151.22,148,144.81,141.5,138.3,135.44,132.3,129.18,126.37,123.6,120.69,117.87,115.21,112.5,110.05,107.53,105.05,102.65,100.41,98.246,95.986,93.816,91.722,89.663,87.369,85.283,83.252,81.183,79.012,77.12,75.274,73.958,72.651
1.0862,1.1399,1.2348,1.3326,1.3581,1.4329,1.5383,1.559,1.5703,1.6185,1.7264,1.7776,1.8466,1.9683,1.9811,2.0458,2.0867,2.0915,2.2231,2.2378,2.2557,2.3392,2.3951,2.3861,2.4301,2.4449,2.5251,2.5111,2.5811,2.5694,2.664,2.6717,2.7532,2.8022,2.8522,2.8546,2.9041,3.0543,3.128,3.206,3.2951,3.4778,3.6183,3.8028,4.1119,4.3951,4.8906,5.3653,6.1209,7.0222,8.3452,9.5716,11.392,13.487,16.058,19.066,22.365,25.622,29.129,32.47,36.083,39.77,43.809,47.968,51.385,55.7,60.38,64.625,68.728,72.459,76.968,81.043,85.253,89.677,93.766,97.994,102.05,106.45,110.95,115.71,120.71,125.85,131.07,136.18,141.78,147.14,152.62,158.13,163.89,170.1,176.19,182.78,189.04,195.77,202.32,209.2,215.63,223.44,230.99,236.76,244.22,251.42,258.81,266.42,274.24,282.43,290.67,299.66,308.65,317.52,326.62,334.27,342.8,351.43,360.41,370.1,380.21,390.64,400.9,413.03,423.49,433.84,443.82,452.1,462.11,472.11,483.22,495.01,506.87,519.09,532.62,542.72,552.79,562.24,572.25,580.46,591.21,602.31,614.19,625.55,636.31,646.78,657.02,666.91,677.15,690.28,700.12,707.89,718.21,728.63,740.44,752.36,763.93,775.96,787.29,797.61,807.58,818.22,831.78,837.76,850.34,867,881.17,895.44,909.08,919.44,934.4,944.44,953.95,962.82,972.11,979.07,990.29,1001.5,1013.4,1026.8,1037.9,1048.4,1056.7,1065.4,1073.8,1085.7,1093.2,1095.3,1101.7,1109.3,1117.1,1124.7,1131.8,1139.2,1146.8,1154,1161.6,1169.2,1176.5,1177.5,1182.9,1193.2,1198.9,1204.5,1208.4,1222.1,1232,1242.8,1253.7,1264.3,1273.8,1278.1,1284.7,1291.5,1298.9,1305.7,1315.9,1327.4,1340.1,1360.8,1379.1,1396.4,1414.5,1425.6,1440.6,1455.7,1469.9,1484.2,1499.1,1513,1527.1,1542.9,1561.1,1584.6,1594.6,1608.8,1619.5,1630,1641.1,1650.4,1659.2,1669.2,1676.8,1684.9,1692,1696.4,1695.2,1698.1,1701.2,1704.3,1708.6,1713.4,1719.4,1731.4,1739.1,1750,1762,1773.7,1778,1785.1,1789.2,1790.8,1791,1788.7,1787.1,1784.9,1791.4,1794.6,1799.5,1804,1804.1,1811.6,1819.5,1828.5,1834.5,1840.1,1842.4,1841.1,1835.2,1830.7,1831.9,1827.6,1819.3,1819.3,1821,1825.7,1830.5,1833.9,1837.2,1839.4,1841.8,1845.1,1854.8,1848.8,1849.2,1846.4,1843.6,1843.2,1840.7,1840.1,1839,1835.5,1835.9,1838,1838.3,1838,1830.7,1829.3,1835.2,1834.1,1831.5,1829.8,1821.3,1827.5,1829,1830,1832.2,1833.4,1828.5,1827.5,1826.5,1823.3,1820.9,1816.3,1813.9,1808.6,1810.3,1804.9,1799.5,1796.4,1786.9,1785.6,1785.3,1788.2,1788.4,1788.3,1788.9,1786.8,1791,1787.5,1782.1,1775.6,1760.2,1749.8,1740.6,1733.7,1725.9,1718.8,1711.5,1704.9,1700.9,1706.7,1704.8,1704.8,1691.9,1696.2,1695.5,1695.3,1691.8,1687.5,1682.5,1675.6,1668.3,1663.4,1655.1,1645.4,1630,1624.8,1613.5,1598.4,1589.2,1588.3,1573.9,1571.9,1564.5,1559.1,1553.5,1541.8,1541.9,1534.7,1528.5,1522.5,1508.8,1507.5,1499.8,1492.2,1485.2,1479.8,1472,1459.3,1451.3,1442.1,1432.9,1423.7,1413.6,1402.9,1391.1,1384,1373.2,1360.9,1348.6,1334.2,1322.8,1312.6,1303.2,1294.5,1284,1277.2,1267.5,1259.2,1257.2,1250.9,1243.2,1231,1223.7,1214.9,1205.1,1195.2,1184.9,1173.4,1161.9,1149,1137.2,1129.3,1112.4,1097.3,1089.5,1078.8,1069.6,1059.9,1049.8,1040.9,1031.5,1023,1014.1,1007.2,1000.3,989.19,981.98,974.61,967.94,961.55,953.66,950.84,943.39,934.91,926.16,916.62,906.79,892.03,881.87,871.89,861.58,852.06,842.91,835.65,827.61,824.18,816.79,809.84,799.25,792.62,784.99,777.89,770.72,765,758.03,751.89,745.67,739.79,734.16,731.15,724.28,718.79,713.02,706.88,701.62,695.96,689.57,682.93,675.61,668.46,662.09,656.85,647.8,640.9,633.96,627.21,621.03,614.4,608.08,601.55,595.48,589.32,582.99,576.62,570.39,564.45,556.55,552.32,545.48,539.72,536.07,531.45,525.89,520.85,516.2,511.19,506.29,501.14,495.82,490.27,485.17,479.94,473.99,467.89,461.82,454.98,449.01,442.38,435.7,429.4,423.14,416.96,411.09,404.82,399.11,393.52,387.51,381.77,376.81,371.16,366.26,361.48,356.19,351.78,347.66,343.34,339.48,335.43,331.69,327.98,324.42,320.92,317.01,313.29,309.02,305.45,301.42,297.06,292.99,288.83,284.25,280.12,275.74,271.17,266.56,261.88,257.17,252.93,248.67,244.5,240.63,236.72,232.94,229.12,225.44,221.69,218.22,214.78,211.06,207.55,203.92,200.34,196.88,193.16,189.41,185.94,182.43,178.74,175.41,171.97,168.45,164.77,161.42,157.83,154.43,150.81,147.67,144.52,141.34,138.22,135,131.77,128.95,125.99,123.17,120.2,117.55,114.84,112.23,109.58,107.21,104.77,102.32,100.13,97.831,95.711,93.545,91.348,89.195,86.938,85.013,82.89,80.797,78.63,76.826,75.062,73.496,72.179
1.0256,1.1475,1.2063,1.3111,1.34,1.4036,1.5672,1.5776,1.6342,1.6574,1.713,1.7657,1.8369,1.9356,1.9582,2.0281,2.0894,2.102,2.1962,2.2397,2.3053,2.2779,2.371,2.4453,2.435,2.5233,2.5282,2.5732,2.6228,2.6533,2.6917,2.7323,2.7698,2.8256,2.8317,2.9149,2.9422,3.0108,3.108,3.1562,3.3441,3.4275,3.6726,3.8064,4.1442,4.4283,4.9223,5.5456,6.2228,7.1873,8.5235,9.9758,11.721,13.929,16.647,19.662,22.861,26.207,29.792,33.221,36.909,40.733,44.764,49.009,52.654,56.769,61.612,65.858,70.027,73.831,78.33,82.465,86.865,91.211,95.52,99.601,103.68,108.15,112.73,117.69,122.77,128.12,133.37,138.58,144.14,149.39,155.03,160.79,166.59,172.68,179.07,185.78,192.33,198.96,205.53,212.42,218.81,227.11,234.5,240.22,247.66,255.01,262.36,270.24,278.17,286.05,294.78,303.76,312.91,321.84,331.02,338.56,347.07,355.59,365.26,375.04,385.07,395.72,406.1,418.44,428.93,439.32,449.51,457.84,467.89,478.14,488.96,500.87,513.5,525.62,539.13,549.45,559.1,568.54,578.72,586.84,597.9,609.18,620.8,632.58,643.04,653.55,663.94,673.75,684.35,697.2,707.09,715.02,725.16,736.09,747.71,759.68,771.07,783.48,794.27,804.97,815,825.58,839.48,845.31,857.84,874.88,888.99,903.35,917.05,927.19,942.2,952.4,961.57,970.82,979.5,986.75,997.75,1009.2,1021.2,1034.8,1045.8,1056,1064.9,1073.3,1081.6,1093.7,1101.4,1103.2,1109.9,1117.3,1125,1132.6,1139.7,1147.7,1154.4,1162,1169.7,1177.2,1184.7,1185.9,1191.2,1201.7,1207.4,1213.7,1216.7,1230.7,1240.8,1251.5,1262.5,1273.1,1282.8,1286.7,1293.7,1300.2,1307.9,1314.6,1324.8,1336.7,1349.5,1370.5,1388.7,1406.5,1424.5,1435.6,1451.1,1465.9,1480,1494.2,1509.4,1522.9,1537.7,1553.2,1571.6,1595,1604.8,1619.4,1629.6,1640.3,1651.3,1661.3,1669.6,1679.7,1687.5,1695.3,1703.1,1707.3,1705.6,1708.8,1712,1715.3,1719.7,1724.1,1730.2,1742.8,1749.8,1760.7,1772.8,1784.4,1789.2,1796.3,1800,1801.6,1802.4,1799.8,1797.7,1796.2,1802.2,1805.1,1810.2,1815.2,1815.2,1822.3,1830.7,1839.2,1845.1,1851.2,1853.5,1852.3,1846.4,1841.5,1843,1837.9,1830.4,1829.9,1831.7,1835.9,1840.7,1844.9,1848.2,1850.6,1852.6,1855.6,1865.6,1859.7,1860.1,1857.4,1854.4,1853.4,1851.2,1850.8,1849,1846.1,1846,1848.6,1848.6,1848.5,1841.2,1839.3,1845.7,1844.6,1841.5,1839.5,1831.4,1837.9,1839.3,1840.8,1842.4,1843.6,1838.1,1837.6,1836.3,1833.2,1830.6,1826.3,1823.8,1818,1819.8,1814.7,1808.8,1805.8,1796.2,1794.9,1794.2,1797.4,1797.4,1797.6,1798,1795.7,1800,1796,1791.1,1784.1,1769.3,1758.7,1749.3,1742.2,1734.6,1727.2,1720.3,1713.2,1708.8,1715.4,1713.3,1712.5,1700,1705,1703.4,1703.2,1700.7,1695.7,1690.5,1683.4,1676.4,1671.2,1662.7,1653,1637.5,1632.2,1621.1,1605.6,1596.3,1595.4,1581.5,1579.4,1571.8,1566.2,1560.5,1548.5,1549,1541.5,1535.6,1529.1,1515.8,1514.5,1507.2,1498.9,1491.8,1486.6,1478.8,1465.6,1457.4,1448.8,1438.9,1430,1419.8,1408.8,1397.2,1390,1378.9,1366.7,1354.4,1339.5,1328.3,1318.2,1308.7,1299.7,1289.4,1282.5,1272.3,1264.5,1262.5,1256.1,1248.2,1236.2,1227.8,1219.6,1209.8,1200,1189.6,1177.7,1165.8,1152.9,1141.4,1133.5,1116.3,1101.6,1093.4,1083.1,1073.7,1063.6,1054.1,1044.8,1035.5,1027.1,1018.3,1011.1,1003.9,992.97,985.57,978.11,971.58,965.09,957.52,954.33,946.94,938.25,929.96,920.17,910.26,895.51,885.19,874.82,864.71,855.07,846.06,838.83,830.51,827.15,819.65,812.68,802.03,795.18,787.48,780.59,773.26,767.98,760.63,754.65,748.2,742.05,737.25,733.77,726.73,721.56,715.39,709.81,704.43,698.58,692.05,685.34,677.7,670.89,664.53,659.39,649.86,642.99,636.35,629.55,622.99,616.37,610.06,603.75,597.79,591.44,585.3,578.84,572.66,566.79,558.62,554.28,547.47,541.9,538.15,533.29,528.22,523.33,518.41,513.52,508.63,503.08,497.9,492.38,487.41,481.72,476.03,470.29,464.07,457.19,451.31,444.27,438.08,431.77,425.23,418.94,413.26,407.05,401.38,395.69,389.86,384.15,378.96,373.62,368.53,363.65,358.68,354.09,350.01,345.52,341.82,337.74,333.81,330.05,326.57,322.89,318.87,315.33,311.11,307.3,303.28,299.14,295,290.66,286,281.8,277.43,272.86,268.17,263.3,258.54,254.34,250.23,246.01,242.19,238.09,234.33,230.53,226.78,223.19,219.58,216,212.5,208.88,205.5,201.75,198.13,194.42,190.73,187.23,183.56,180.07,176.7,173.11,169.65,166.24,162.64,158.93,155.61,152.17,148.95,145.8,142.47,139.35,136.35,133.19,130.12,127.21,124.48,121.54,118.81,116.08,113.33,110.81,108.5,105.89,103.61,101.23,98.989,96.827,94.552,92.513,90.316,88.109,85.809,83.874,81.679,79.562,77.785,76.14,74.416,73.223
