0.991,1.103,1.1266,1.2106,1.3094,1.4224,1.337,1.449,1.5108,1.6464,1.5772,1.7256,1.8208,1.7882,1.905,1.9806,2.0482,2.04,2.0824,2.0858,2.1668,2.1774,2.2878,2.2698,2.3996,2.4918,2.4404,2.5178,2.4908,2.5752,2.6172,2.5554,2.7394,2.7786,2.8718,2.8912,2.9548,2.9818,3.0728,3.1384,3.272,3.5398,3.6484,3.8536,4.1764,4.5604,5.1232,5.8296,6.6896,7.8274,9.343,11.133,13.654,16.02,18.998,22.459,25.936,29.946,33.647,37.573,41.501,45.93,50.208,54.958,58.758,63.489,68.49,72.953,77.451,81.468,85.652,89.999,94.538,99.268,103.9,108.27,112.29,116.97,121.77,126.99,132.51,137.92,143.46,148.83,154.57,160.24,165.85,171.99,177.6,184.07,190.84,198.14,205.14,211.97,219.04,226.4,232.7,241.42,249.21,255.36,263.44,272.34,280.56,288.73,296.85,305.39,314.81,324.93,335.01,345.33,355.06,363.52,373.11,382.73,392.92,403.69,414.15,425.07,436.09,449.15,460.87,473.11,483.53,492.6,503.62,514.46,526,538.51,550.77,563.9,577.81,588.87,599.48,609.34,619.98,628.13,638.16,649.68,661.29,673.64,684.55,695.73,706.62,717.21,727.68,741.43,750.99,758.11,768.05,778.28,788.98,800.42,811.7,823.51,835.84,846.87,857.6,868.36,881.46,885.69,897.92,914.26,928.09,943.01,956.3,967.79,983.55,995.03,1005.2,1015.2,1024,1030.2,1040.4,1052.4,1064.2,1078.3,1091,1102.8,1112.8,1122.8,1131.8,1144.3,1152.6,1155.2,1162.1,1169.5,1178.9,1187.8,1196.1,1205.3,1211.4,1218.4,1227.5,1234.7,1241.9,1244.8,1249.6,1260.9,1266.6,1272.8,1274.4,1287.8,1297.5,1306.9,1318.4,1329,1338.9,1343.7,1351.4,1359,1367.4,1373.4,1381.6,1391.9,1402.3,1421.2,1438.7,1456,1474.4,1486.2,1502.1,1518.1,1534.8,1549.3,1564,1578.4,1592.7,1607,1624.2,1647.7,1658.8,1674.7,1688,1700.2,1712.8,1721.6,1731.5,1741.3,1749.9,1757.4,1766.2,1771.8,1768.9,1772.6,1775.5,1779,1783.7,1788.5,1793.6,1806.3,1811.7,1821.7,1831.8,1843.2,1847,1856.3,1863.6,1866.8,1870,1868.1,1866.3,1864.1,1870.6,1871.5,1874.7,1877.6,1876.6,1882.8,1889.9,1898.9,1907.4,1912.1,1917.9,1917.6,1915.4,1911.2,1913,1909.7,1899.4,1897,1896.5,1900.2,1904,1908,1910.2,1913.3,1915.8,1920.5,1931.6,1925.8,1927,1925.1,1924,1923.5,1921.7,1920,1916.9,1915,1915.3,1914.3,1915.8,1916.1,1907.1,1905,1910.9,1909.6,1906.5,1904.6,1896.1,1901.3,1902.6,1905.3,1906.4,1908.8,1903.3,1904.1,1903.2,1899.1,1896.2,1892.8,1887.1,1881,1881.3,1875.2,1868.3,1863,1851.4,1847.9,1845.7,1845.6,1845.7,1846.5,1846.5,1842.7,1846.8,1843.8,1838.6,1832.3,1815.9,1804.7,1792.6,1785.8,1775.8,1767.7,1758.6,1750.9,1745.2,1749.9,1745.8,1745.1,1729.5,1735.3,1733.1,1732.9,1730.2,1726.1,1720.9,1714.6,1708.7,1701,1692.9,1684.8,1668.5,1662.9,1651.3,1635,1625,1622.7,1607.4,1603.8,1596.4,1590.2,1583.4,1571,1572.8,1565.5,1559.2,1553.8,1539.5,1537.4,1530.4,1521.4,1514.1,1509.4,1502.4,1490.2,1481.7,1474,1465.1,1455.7,1445.2,1433.6,1422.2,1414.9,1404.9,1393.4,1380.5,1365.5,1355,1343.5,1333.9,1325.1,1315.1,1306.4,1297.6,1288.2,1286.7,1279.5,1272.4,1259.8,1252.6,1244.5,1234.9,1225.5,1214.9,1203.3,1192.2,1178.4,1165.8,1157.8,1140.2,1124.7,1115.7,1103.6,1094.3,1084.3,1073.3,1063.7,1055,1044.7,1036.7,1027.7,1020.7,1009,1001.7,993.47,987.22,979.99,972.76,969.3,962.22,953.54,945.36,935.23,926.14,911.87,901.42,889.77,879.86,869.26,859.77,851.83,842.6,838.94,831.87,825.06,813.2,806.19,798.47,791.65,784.16,777.7,770.45,764.06,756.91,751.14,745.01,742.35,734.57,729.3,723.33,717.43,711.87,705.78,699.48,693,685.53,678.67,671.3,666.13,656.78,650.04,643.33,636.25,629.47,622.73,615.97,609.34,602.74,596.35,590.33,583.27,576.79,570.37,561.73,557.87,549.95,544.52,540.94,536.04,530.36,525.46,520.54,515.47,510.54,504.74,499.21,493.83,489.37,483.8,478.26,472.28,465.65,459.48,453.53,446.79,440.17,434.16,427.41,420.67,415.2,408.67,402.48,396.84,391.14,385.05,379.85,374.64,369.07,364.43,359.43,354.7,350.46,345.83,341.94,338.19,334.03,330.35,326.93,322.99,318.89,315.46,311.49,307.65,303.58,299.4,295.81,291.16,287.15,282.74,278.44,273.33,268.87,264.65,259.77,255.13,251.31,246.68,243.13,239.36,235.4,231.38,228.2,224.04,220.43,216.73,212.94,209.31,205.8,201.89,198.34,194.52,190.91,187.14,183.77,180.14,176.64,172.88,169.27,165.74,162.11,158.82,155.45,151.82,148.77,145.51,142.11,139.21,136.4,133.13,130.24,127.5,124.63,121.92,119.22,116.01,113.93,111.12,108.76,106.13,103.81,101.54,98.785,96.852,94.437,92.093,90.231,87.925,85.796,83.612,81.545,79.166,77.237,75.469,73.909,72.565
0.9392,1.0696,1.101,1.2236,1.3126,1.2978,1.4476,1.4634,1.4922,1.645,1.6374,1.7228,1.7748,1.8334,1.9056,1.9244,2.0192,1.9872,2.0858,2.126,2.1986,2.2344,2.2524,2.3472,2.2634,2.4344,2.4454,2.4436,2.5214,2.5018,2.5074,2.6388,2.7052,2.7134,2.6846,2.778,2.826,2.9206,3.0722,3.1442,3.2982,3.4172,3.7212,3.8442,4.1886,4.5536,5.0396,5.7636,6.5512,7.9374,9.2442,11.34,13.616,16.163,19.243,22.894,26.495,30.455,34.296,38.3,42.246,46.65,51.177,55.885,59.779,64.652,70.015,74.417,78.623,82.594,87.098,91.112,96.039,100.55,105.17,109.77,113.47,118.26,123.06,128.26,133.63,139.1,144.88,150.13,155.89,161.38,167.28,173.45,178.9,185.13,192.14,199.61,206.6,213.49,220.58,227.66,234.07,243.12,250.94,257.16,265.01,274.36,282.46,290.49,298.88,307.64,316.8,326.8,337.46,347.36,356.99,365.62,375.52,385.68,395.67,406.38,416.9,427.47,439,451.98,464.1,476.2,487.04,496.08,507.5,518.18,529.95,542.22,554.85,567.17,581.66,592.67,603.56,613.85,624.25,632.43,643.29,654.45,666.45,678.64,689.89,700.73,711.75,722.77,733.02,746.47,756.49,764.45,773.67,784.09,795.33,807.3,818.52,830.68,842.64,854.25,865.31,875.65,888.97,893.58,905.51,922.48,936.6,951.22,965.35,975.63,992.35,1004,1014.6,1024.7,1033.6,1039.7,1050.7,1062.2,1074.5,1088.4,1101.3,1113,1122.7,1133.7,1142.6,1155.8,1163.4,1166.5,1173.2,1181.4,1190.8,1198.8,1207.5,1216.1,1223.7,1231.2,1240.3,1247.1,1254.7,1257.6,1263.4,1274.7,1280.5,1286.5,1288.4,1302.3,1311.1,1321,1332.2,1343,1353.2,1357.4,1365.8,1373.9,1382.8,1388.1,1396.9,1406.2,1417.2,1436.6,1454.7,1471.4,1490,1501,1517.1,1533.4,1550.7,1564.9,1579.9,1594.1,1608.7,1622.5,1639.6,1663.3,1674.5,1691,1703.8,1715.9,1728.1,1738.3,1749.1,1757.5,1765.9,1774.6,1782.9,1788.8,1786.2,1790.2,1792.8,1796.4,1801.2,1805.3,1811.2,1823.7,1828.8,1838.7,1849.1,1861.2,1864.7,1874.3,1881,1884.5,1886.9,1885.4,1883.8,1881.7,1888.4,1889.4,1893.5,1895.5,1893.9,1900.3,1907.7,1916.6,1925.5,1930.6,1936,1936.6,1934.5,1929.9,1930.8,1927.7,1916.9,1915,1915.2,1918.1,1922,1925.3,1928.2,1931.5,1934.3,1938.9,1949.9,1945,1945.3,1944.5,1941.6,1941.3,1940.3,1937.8,1936.6,1933.7,1933.3,1932.8,1934.4,1934.3,1925.7,1923.2,1929.5,1928.9,1925.2,1922.5,1914.6,1919.9,1920.1,1923.2,1924.8,1926.6,1920.4,1922.8,1921.4,1917.3,1914.3,1910.2,1905.1,1897.8,1898.5,1892.5,1885.2,1879.9,1869.3,1864.6,1862.5,1862.4,1862.7,1862.5,1862.6,1859.2,1862.6,1859.8,1853.9,1848.5,1831.1,1818.6,1809.1,1800.4,1791.4,1782.2,1772.7,1764.7,1758.7,1763.3,1759.8,1758.8,1744.3,1749.3,1747.1,1746.1,1743.4,1740,1735.1,1728.3,1721.8,1714.8,1707.7,1699.3,1682.1,1677.2,1665.1,1649.3,1638.2,1634.9,1619.6,1616.1,1608.5,1602.2,1595.9,1583.2,1584.5,1577.9,1571.8,1565.6,1551.9,1550.1,1543.3,1534.2,1526.8,1521.3,1514.5,1501.8,1493.4,1485.7,1476.5,1467.5,1456.9,1445.9,1434.2,1426.4,1416.7,1404.6,1392.3,1375.4,1365.1,1353.9,1344.1,1335.3,1325.5,1316.5,1307.7,1298.4,1296.8,1289.2,1282.1,1269.8,1261.9,1254,1244.3,1235,1225,1213,1201.2,1187.3,1174.8,1167.1,1148.7,1133.3,1124.3,1112.7,1102.3,1091.9,1081.9,1072.3,1063.4,1053,1044.6,1036.1,1028.2,1017.4,1009.6,1001.8,994.64,986.97,979.7,976.86,969.4,961.12,952.69,942.8,933.37,918.87,908.33,897.06,886.42,876.93,866.82,858.65,849.23,845.3,838.16,831.22,819.32,811.25,804.83,797.51,789.75,783.62,775.71,769.29,762.78,756.78,750.88,748.07,739.95,734.31,728.38,722.64,716.9,710.69,704.99,697.84,690.15,683.23,676,670.65,661.95,654.94,647.72,640.87,634.1,627.69,620.83,613.91,607.41,601.01,594.89,587.65,580.93,574.53,566.01,561.73,554.01,548.42,545.3,539.95,534.42,530.14,524.68,519.57,514.75,508.51,503.31,497.76,493.2,487.39,481.34,475.6,469.13,463.24,456.35,450.34,443.48,437.2,430.39,423.88,418.08,411.86,405.51,400.02,394.21,387.93,382.69,377.59,372.39,367.37,362.05,357.39,352.96,348.39,344.81,340.55,336.39,332.65,329.3,325.73,321.73,317.82,313.75,309.85,306.14,301.79,297.88,293.4,289.26,284.56,280.43,275.62,271.21,266.66,261.73,257.27,252.99,248.71,244.83,241.01,237.06,233.15,229.74,225.47,221.88,218.29,214.54,210.85,207.3,203.67,199.81,196.09,192.18,188.6,184.98,181.09,177.87,174.33,170.58,166.9,163.56,160.05,156.32,152.79,149.79,146.7,143.46,140.4,137.34,134.59,131.28,128.47,125.72,123.01,120.12,117.38,114.5,112.26,109.58,106.88,104.67,102.14,99.851,97.686,95.466,93.181,90.912,88.591,86.578,84.23,82.146,79.945,77.765,75.977,74.416,73.271
0.9966,1.1004,1.1174,1.2444,1.351,1.4104,1.3916,1.4778,1.5102,1.5994,1.6832,1.7344,1.7524,1.8564,1.9104,1.9992,1.9148,1.9656,2.13,2.0932,2.1704,2.2348,2.241,2.342,2.3934,2.4492,2.5082,2.394,2.5936,2.589,2.5418,2.639,2.7306,2.7772,2.8048,2.9634,2.9778,2.9954,3.0792,3.2032,3.236,3.4544,3.6636,3.8702,4.1654,4.6848,5.1794,5.8066,6.6898,7.926,9.2006,11.111,13.451,15.958,19.064,22.623,26.037,29.969,33.791,37.741,41.676,46.056,50.701,55.31,59.117,63.922,68.853,73.559,77.816,81.79,86.219,90.415,95.107,99.664,104.62,108.97,113.01,117.74,122.55,128.06,133.46,139.26,144.49,149.91,155.91,161.26,167.71,173.42,179.3,185.72,192.84,199.85,206.94,213.99,221.24,228.25,234.73,243.48,251.7,257.8,265.71,274.89,283.2,291.55,299.82,308.38,317.99,327.67,337.95,348.43,358.62,367.09,376.96,386.77,397.25,407.86,418.28,429.46,440.52,453.63,465.63,477.76,489.22,497.69,509.01,520.18,532.14,544.15,557.09,569.63,583.54,595.11,605.52,616.04,626.3,634.6,645.47,656.95,668.67,681.17,692.45,703.99,714.5,725.29,735.92,749.52,759.73,767.09,777.17,787.3,798.6,809.69,821.47,834.08,845.81,857.4,868.6,879.04,893.05,897.49,909.13,926.52,940.56,954.65,968.87,980.28,997.38,1008.4,1018.6,1028.2,1037.6,1043.7,1054.3,1065.7,1078.4,1093,1105,1117.5,1127.1,1137.7,1146.7,1159.8,1167.2,1170.3,1177.3,1185.5,1194.7,1202.8,1211.3,1220.6,1227.6,1234,1244.4,1250.6,1258,1260.6,1266.4,1277.3,1283.6,1289.5,1291.8,1305.4,1314,1324.6,1335.8,1346.6,1356.6,1361.1,1370.5,1377.5,1385.4,1391.2,1400.3,1410.2,1421.3,1440.5,1458.7,1475.7,1493.9,1506.1,1522.2,1539.3,1555.2,1570,1584.9,1599,1613.6,1627.8,1645.3,1668.6,1680,1695.9,1710,1722.2,1734.7,1744.9,1754.4,1763.5,1772.3,1779.9,1788.8,1794.4,1792.8,1795.4,1798.9,1802.2,1806.5,1810.9,1816.1,1830,1835,1844.6,1855.7,1867.1,1871.4,1881,1887.6,1891.1,1893.7,1891.7,1889.8,1887.5,1894,1895.3,1899.6,1901,1900,1906.6,1914.2,1923.6,1932.4,1936.9,1942.1,1942.4,1939.6,1935.4,1937.2,1933.3,1923,1921.5,1921.2,1924.4,1928.5,1931.3,1934.3,1936.7,1939.9,1945.2,1955.4,1950,1951.3,1950.2,1948,1947.1,1946.1,1944.2,1941.6,1939.5,1938.9,1937.9,1939.4,1940.8,1930.8,1930.2,1935.8,1933.6,1931.3,1928.9,1920,1925.9,1926.4,1929.8,1931.1,1932.4,1926.9,1928.1,1926.4,1922.8,1920.3,1915.5,1910.1,1904.2,1904.4,1898.4,1891.2,1885.9,1874.1,1870.7,1867.9,1869.1,1868.6,1869.5,1869.3,1866.7,1870.2,1867,1861.7,1854.8,1838.2,1827.4,1816.3,1809.2,1798.2,1790,1780.7,1772.2,1767,1771.7,1768.1,1766.9,1751.3,1756.3,1754.9,1754.8,1751.1,1747.3,1742.3,1735.9,1730.4,1722.2,1715,1705.5,1688.7,1683.7,1671.9,1655.4,1645,1642.5,1627.5,1623.2,1616,1609,1602.8,1590.6,1592.1,1584.5,1578.6,1572.4,1558,1557.1,1549.7,1539.8,1533.5,1527.4,1520.7,1507.8,1499.7,1491.3,1482.2,1473.5,1462.3,1450.7,1439.2,1431.7,1421.2,1409.2,1396.6,1381,1370.3,1359,1349.7,1340.2,1330.8,1321.6,1312.7,1302.8,1301.2,1294.5,1286.4,1274.4,1266.8,1258.2,1249.2,1239,1228.5,1217.9,1204.7,1191.7,1178.6,1170.9,1152.6,1137,1128.4,1115.7,1106.2,1096.2,1085.9,1075.8,1066.9,1056.6,1048.1,1039.2,1032.5,1020.9,1013.1,1005.6,998.45,991.22,983.69,980.8,973.21,964,955.65,945.77,936.38,922.31,911.85,900.07,889.76,879.53,870.68,862.03,852.8,848.74,841.15,834.27,822.52,814.95,807.93,799.98,793.07,786.71,778.76,772.43,765.52,759.71,753.93,751.48,742.88,737.76,731.49,725.24,719.64,713.47,707.8,700.58,693.27,685.78,679.15,674.17,664.34,657.24,650.59,643.45,636.49,629.91,622.9,616.1,610.03,603.52,597.12,590.1,583.64,576.91,568.38,564.31,556.08,550.83,547.19,542.42,536.92,532.33,526.47,521.55,516.75,510.7,505.18,499.97,495.59,489.39,484,477.85,471.21,464.96,458.74,451.97,445.54,438.92,432.42,425.83,420,413.5,407.44,401.69,395.9,389.51,384.36,379.07,373.58,368.79,363.99,358.59,354.68,350.19,345.95,342.05,338.07,334.14,330.85,327.19,323.11,319.38,315.32,311.18,307.47,302.87,298.87,294.77,290.31,286,281.58,276.66,272.32,267.35,262.66,258.31,253.88,249.97,245.82,241.96,237.96,234.12,230.67,226.46,223,219.26,215.52,211.79,208.16,204.58,200.75,197.12,193.24,189.37,185.86,182.24,178.83,174.99,171.05,167.71,164.46,160.8,157.15,153.9,150.53,147.17,144.06,141.13,138.11,134.94,131.87,129.03,126.39,123.5,120.56,117.75,115,112.44,110.05,107.58,104.98,102.72,100.47,98.136,95.796,93.386,91.376,88.832,86.979,84.546,82.551,80.153,78.213,76.27,74.696,73.298
0.9894,1.1382,1.188,1.1946,1.3562,1.4258,1.4352,1.4696,1.5754,1.6086,1.6424,1.7848,1.76,1.8082,1.9382,2.0662,2.009,2.0164,2.0596,2.2122,2.2378,2.1798,2.3118,2.2646,2.3792,2.4276,2.3932,2.5268,2.4928,2.567,2.5892,2.6382,2.6712,2.649,2.7328,2.8302,2.901,3.0256,2.9842,3.1032,3.2676,3.3724,3.568,3.8814,4.1104,4.5948,5.0744,5.6508,6.5486,7.6398,9.0454,10.673,13.042,15.578,18.531,21.767,25.421,29.195,32.97,36.839,40.523,44.998,49.236,53.66,57.564,62.389,67.506,71.863,76.198,80.027,84.385,88.659,93.229,97.865,102.34,106.85,110.74,115.23,119.98,125.4,130.79,136.43,141.84,147.05,152.62,158.41,164.32,170.31,175.79,182.28,188.85,196.15,203.22,210.21,217.13,224.17,230.72,239.31,247.42,253.45,261.27,270.07,278.3,286.44,294.55,303.19,312.44,322.19,332.73,342.61,352.59,360.87,370.36,380.13,390.16,400.69,411.37,422.06,433.36,446.52,458.12,469.34,480.63,489.72,500.4,511.46,522.67,535.03,548.13,560.61,574.45,585.85,596.02,606.58,616.39,625.01,635.43,646.16,658.28,670.31,681.85,693.15,703.29,714.01,724.28,737.75,747.51,754.98,764.88,775.03,786.62,797.36,808.92,821.1,832.57,844.15,854.76,865.41,877.95,882.25,894.12,910.81,925.15,939.29,953.68,964.33,981.26,992.41,1002.6,1012.5,1021.8,1027.5,1038.4,1050.2,1061.9,1076,1089.4,1100.6,1110.9,1120.3,1129.8,1143,1150.3,1153.3,1159.8,1167.9,1177.4,1185.2,1193.7,1202.4,1209.6,1216.8,1226.4,1233.2,1240,1242.8,1248.5,1259.7,1265.7,1271,1273,1287.3,1295.9,1306.3,1316.8,1327.7,1337.9,1341.8,1350.3,1358.3,1365.9,1372.3,1380.6,1390.6,1401.6,1420.5,1438.9,1455.3,1473.7,1485.9,1500.9,1517.9,1534.8,1548.3,1564.1,1577.7,1593,1606.8,1623.5,1647.2,1659,1674,1687.7,1700.2,1712,1720.8,1731.7,1741.8,1749.2,1757.8,1766.2,1772.3,1769.8,1773,1775.8,1779.8,1783.4,1788.4,1794,1807,1812.5,1821.9,1832.5,1843.9,1848,1858.1,1863.9,1868,1870.3,1868.4,1867.6,1864.9,1871.6,1872.7,1877,1878.6,1877.2,1883.6,1890.6,1900.5,1908.7,1913.4,1918.8,1919.1,1916.8,1911.8,1914.7,1911.1,1900.7,1898.5,1898.4,1901.1,1906.1,1909.1,1911.5,1915.7,1917.7,1923,1933.3,1928.2,1929.2,1927.4,1925.3,1924.7,1923.8,1921.6,1920.4,1917.4,1917.2,1917.4,1918.9,1918.4,1910.2,1908.4,1913.8,1912.6,1909.3,1906.8,1899.3,1904.4,1904.9,1908.1,1909.6,1910.7,1906.4,1907,1905.5,1901.9,1899.9,1895.6,1890.7,1883.5,1884.6,1878.4,1870.3,1866.3,1854.8,1850.7,1848.1,1848.9,1848.7,1849,1849.3,1846.5,1850.7,1847.2,1841,1835.1,1818.2,1806.8,1796.3,1787.5,1778.4,1770.4,1761.3,1753.3,1748.2,1752.5,1748.3,1747.4,1732.7,1737.9,1735.5,1735.8,1732.3,1728.3,1723.3,1717.1,1711.7,1703.5,1695.8,1689,1670.8,1665.5,1654.3,1638.6,1628.2,1625.3,1610.1,1606,1599.5,1592,1585.9,1573.8,1574.9,1567.6,1561.9,1555.8,1541.1,1540.2,1532.7,1524.1,1517.4,1511.7,1504.3,1492.3,1484.5,1475.7,1467.2,1458.3,1447.6,1436.4,1424.6,1417.5,1407.2,1395,1382.3,1366.6,1356.8,1345.5,1336.5,1327.3,1317,1308.6,1299.4,1290.3,1288.7,1281,1273.8,1261.4,1254.5,1246.1,1237.5,1227.4,1217.1,1205.5,1194.1,1181,1167.5,1160.4,1142,1126.7,1117.9,1105.5,1095.6,1086.4,1075.2,1065.3,1056.9,1046.7,1037.8,1029.2,1021.9,1010.8,1003.5,995.94,988.57,981.38,973.99,971.15,964.06,955,947.33,937.34,928.28,913.19,902.74,890.92,880.89,871.34,861.3,853.06,844.45,840.89,833.66,826.54,814.75,807.3,800.02,792.8,785.8,779.01,771.36,765.13,758.93,752.45,747.17,744.24,736.38,730.71,724.91,718.97,713.09,706.95,700.88,694.52,687,679.59,672.66,667.28,658.41,651.58,644.7,637.52,630.39,624.24,617.13,610.67,604.07,597.72,591.72,584.73,577.74,571.54,562.93,559.14,551.5,545.72,542.23,537.47,531.71,527.08,521.49,516.26,511.75,505.81,500.46,495.03,490.94,484.42,479.27,472.64,466.73,460.25,454.07,447.38,440.96,434.29,428.4,421.41,415.65,409.78,403.37,397.59,391.46,385.55,380.42,374.98,370.11,365.14,360.09,355.28,351.07,346.29,342.73,338.32,334.41,330.3,327.11,323.33,319.57,315.91,311.96,308.11,304.18,299.89,295.96,291.76,287.36,283.1,278.61,274.04,269.33,264.82,260.22,255.82,251.8,247.3,243.69,239.56,235.99,231.98,228.33,224.22,220.62,217.27,213.53,209.71,206.39,202.39,198.64,194.96,191.36,187.51,184.21,180.71,177,173.41,169.66,166.24,162.46,159.34,155.47,152.13,149.03,145.62,142.6,139.63,136.75,133.73,130.57,127.68,124.94,122.22,119.49,116.74,114.26,111.57,108.82,106.32,103.85,101.72,99.197,97.227,94.862,92.129,90.398,87.794,85.821,83.707,81.625,79.439,77.191,75.523,73.995,72.682
0.938,1.06,1.1472,1.2746,1.2632,1.2838,1.4348,1.4602,1.5338,1.5884,1.6342,1.6946,1.7246,1.7788,1.9128,1.9518,1.9776,2.0338,2.1264,2.0714,2.2176,2.151,2.1872,2.3434,2.3446,2.4142,2.412,2.404,2.5238,2.474,2.5486,2.5822,2.6764,2.7106,2.8634,2.8094,2.9328,3.0412,3.0346,3.113,3.2646,3.3682,3.6224,3.8672,4.2258,4.4942,5.0526,5.746,6.7222,8.03,9.3592,11.058,13.709,16.239,19.341,22.672,26.483,30.261,34.207,38.099,41.902,46.633,51.094,55.633,59.553,64.424,69.569,74.116,78.455,82.425,86.423,90.936,95.548,100.16,104.62,109.05,112.98,117.47,122.28,127.81,133.07,138.7,144,149.54,155.07,160.72,166.31,172.64,178.07,184.12,191.02,198.51,205.68,212.47,219.39,226.54,233.05,241.85,249.47,255.72,263.67,272.82,280.93,288.87,297.59,305.77,315.44,325.36,335.48,345.62,355.63,364.05,373.75,383.61,393.7,404.69,414.74,426.13,437.35,450.12,461.53,473.83,485.29,493.9,504.79,515.73,527.83,540.38,552.8,564.97,579.28,590.72,601.02,611.61,622.06,630.1,640.88,651.76,663.9,676.04,687.38,698.41,709.55,720.3,731.3,744.31,754.31,762.02,771.95,782.36,793.63,804.83,816.47,828.36,840.53,852.23,863.22,873.59,886.83,891.34,903.22,920.01,934.74,949.42,963.25,974.48,991.5,1002.4,1013.1,1022.7,1031.7,1038.4,1048.7,1060.1,1072.4,1087.5,1100,1111.3,1121.7,1132.1,1141.4,1154.3,1161.8,1165,1172.3,1180.3,1189.1,1197.9,1206.4,1215.2,1222.5,1229.6,1239.3,1246.1,1253.5,1256.6,1262.5,1273.1,1279.5,1285.4,1286.8,1301.6,1310.1,1320.3,1330.9,1341.6,1351.8,1356.6,1365.1,1372.9,1381.7,1387.5,1396.5,1406.2,1416.3,1435.7,1453.7,1471.1,1488.2,1500.9,1516.5,1533.7,1550.2,1564.9,1579.3,1594.2,1608.2,1623,1640,1663.8,1674,1690.5,1704,1716.4,1728.7,1738.3,1749,1757.7,1765.8,1774.4,1783.2,1789.4,1787,1790,1793.8,1796.7,1800.9,1805.4,1811.7,1824.3,1829.5,1838.7,1850,1861.5,1865.5,1875.6,1881.5,1884.9,1887.9,1886.7,1884.5,1883.1,1889.8,1890.3,1894.1,1896.4,1895.5,1901.9,1909.2,1918.8,1927.1,1932.5,1937.3,1938.3,1935.1,1930.1,1931.8,1929.3,1918.4,1916.4,1916,1919.7,1923.6,1927.3,1929.3,1933.1,1935.9,1940.3,1951.2,1947.2,1947.5,1945.8,1944.3,1943.9,1942.4,1940.4,1938.5,1935.6,1935.5,1935.3,1935.8,1936.4,1927,1926.5,1932.1,1930.8,1926.4,1925,1916.5,1921.7,1923.4,1925.3,1927.7,1929.3,1924.1,1924.6,1923.2,1918.8,1916.6,1913,1907.5,1900.8,1901.5,1895.4,1887.9,1882.5,1871.6,1867.7,1865.8,1865.3,1865.3,1865.8,1866.1,1862.5,1866,1863.5,1858.3,1852,1834.7,1823.3,1812.4,1804.3,1794.5,1786,1776.9,1768.6,1762.9,1768.1,1763.7,1762.9,1747.5,1753.3,1750.6,1750.1,1747,1743.9,1738.8,1732.1,1726.3,1718.6,1711.2,1702.8,1685.6,1680.3,1669.3,1653.1,1641.9,1639,1624.2,1620.4,1613.1,1606.5,1599.4,1586.9,1588.4,1581.5,1575.7,1569.3,1555.3,1553.2,1546.7,1537.4,1529.6,1524.8,1518.5,1505.1,1497.5,1489.3,1480.1,1471.6,1460.9,1448.9,1437.4,1430,1419.6,1407.8,1395.3,1378.9,1368.7,1357.5,1347.7,1338.9,1328.9,1320.3,1310.6,1301.7,1299.6,1292.3,1285,1272.4,1264.8,1256.8,1248.5,1237.8,1227.6,1216.1,1203.2,1190.4,1177.5,1170.1,1151.6,1136.2,1127.2,1114.9,1105,1095.7,1084.6,1074.9,1066.1,1056,1046.9,1038.5,1031.1,1020.1,1012.8,1004.2,996.99,989.82,982.8,979.59,971.84,962.84,955.25,945.59,936.2,921.29,911,899.56,889.41,878.77,868.91,860.75,851.88,847.65,840.44,833.66,821.62,814.22,807.39,798.95,791.75,785.62,778.11,771.58,765.01,758.73,752.73,749.85,742.15,736.85,730.4,724.54,718.91,712.83,706.42,699.78,692.25,684.97,677.72,672.57,663.15,656.89,649.44,642.43,635.81,629.42,622.41,615.38,609.04,602.69,596.2,589.68,582.65,576.1,567.27,563.56,555.82,550.04,546.56,541.91,536.1,531.37,525.61,520.99,516.02,510.23,504.05,499.03,494.44,488.28,483.26,476.97,470.09,464.09,457.77,450.86,444.74,438.62,431.21,424.86,418.83,412.75,406.63,400.73,394.9,388.85,383.39,377.96,373.16,368.09,362.88,358.29,353.68,348.92,344.97,341.17,337.2,333.12,330.04,325.86,322.06,318.19,314.59,310.46,306.56,302.53,298.25,294.07,289.54,285.23,280.76,275.84,271.71,267.14,262.29,257.86,253.55,249.23,245.28,241.56,237.5,233.74,230.38,226.15,222.55,219,215.18,211.44,207.97,203.91,200.23,196.57,192.75,188.94,185.5,181.88,178.37,174.88,170.98,167.56,164,160.35,156.93,153.47,150.36,147.07,143.65,140.88,137.86,134.58,131.5,128.8,126.06,123.15,120.37,117.44,114.9,112.23,109.59,107.12,104.96,102.6,99.97,97.653,95.539,93.51,91.346,88.941,86.59,84.574,82.238,80.077,77.802,76.193,74.547,73.309
0.9346,1.074,1.1886,1.3056,1.293,1.3714,1.4698,1.4644,1.5308,1.6108,1.6448,1.6824,1.7536,1.8304,1.887,1.9364,1.9428,2.154,2.1194,2.0894,2.2442,2.2342,2.3342,2.3174,2.3222,2.428,2.4846,2.449,2.4246,2.561,2.7194,2.6568,2.621,2.658,2.7692,2.907,2.9136,2.9348,3.0664,3.2542,3.243,3.4258,3.5678,3.878,4.2616,4.535,5.1374,5.8082,6.839,7.9364,9.429,11.266,13.387,16.221,19.257,22.833,26.53,30.03,34.033,38.009,42.091,46.658,51.004,55.753,59.878,64.334,69.691,74.063,78.368,82.588,86.911,90.894,95.649,100,104.77,109.24,113.18,117.69,122.43,127.69,133.19,138.77,144.32,149.65,155.27,160.76,166.46,172.52,178.27,184.51,191.27,198.6,205.65,212.73,219.48,226.69,232.77,241.85,249.63,255.97,264.16,272.95,280.94,289.36,297.73,305.99,315.92,325.6,335.74,345.63,355.82,364.25,373.97,383.74,393.72,404.45,415.14,426.01,437.34,450.7,462.13,474.08,485.24,494.36,505.79,516.26,527.68,540.11,552.32,564.89,579.5,590.36,601.1,611.74,622.07,630.07,640.74,651.56,663.32,675.41,686.89,698,708.88,719.13,730.46,743.25,753.36,761.22,770.56,781.31,792.27,803.66,814.92,827.05,839.12,850.2,861.45,871.42,884.66,888.99,899.76,916.55,930.88,945.14,959,970.23,987.21,998.96,1008.9,1019.1,1028.2,1034.4,1044.4,1055.9,1068.3,1082.8,1095.3,1107.1,1117.8,1128.2,1137.6,1150.3,1158.3,1161.4,1168,1176.3,1185.8,1193.5,1202.7,1211,1218.8,1226.4,1235.6,1242.6,1250.4,1253.7,1258.8,1270.1,1276,1281.9,1283,1297,1306.5,1315.9,1328.2,1337.2,1347.7,1352.4,1361.4,1368.9,1377.7,1383.3,1391.5,1401.3,1411,1431.1,1448.3,1464.8,1483.3,1494.5,1510.9,1528.1,1544.7,1558.9,1573.9,1588.5,1602.2,1617.2,1633.3,1656.6,1668,1684.2,1697.7,1710,1722.5,1732.2,1742.8,1752.7,1760.2,1768.4,1776.4,1782.2,1780.8,1783.5,1786.4,1790.3,1795.4,1798.5,1805,1816.4,1822.1,1831.5,1842.6,1853.4,1857.2,1867.7,1874.9,1877.8,1881.2,1880.3,1877.5,1876.3,1881.2,1882.3,1886.1,1889.6,1887.4,1893.6,1900.8,1910.3,1919,1924.1,1928.9,1930.8,1928.5,1923.5,1925.5,1922.3,1911.7,1909.4,1908.2,1912.4,1916.8,1919.9,1922.6,1925.2,1928.4,1933.1,1944.2,1939.9,1940.1,1938.9,1937.1,1936.4,1934.9,1932.8,1930.8,1928.1,1928.3,1928,1928.6,1929.5,1919.4,1918.8,1924.7,1923.7,1920.3,1917.6,1909.9,1914.7,1915.4,1919.2,1920.2,1921.8,1916.8,1918.1,1916.8,1913.4,1910.1,1906.6,1901.1,1894.2,1895,1889.4,1881.2,1875.1,1863.8,1860.1,1857.4,1858.1,1857.6,1857.5,1857.9,1854.4,1857.6,1855,1848.5,1842.6,1826.2,1813.8,1804.4,1795.3,1785.1,1777.3,1767.5,1759.5,1752.6,1757.8,1754.5,1752.5,1737.4,1742.9,1740.8,1740.5,1737.1,1734,1729.4,1723.3,1717.5,1709.3,1701.9,1693.5,1677.1,1672.3,1660.4,1644.1,1633.2,1630.8,1615,1611.2,1603.1,1597.2,1590.9,1577.6,1580.4,1573.4,1568,1562.3,1547.8,1546.7,1539.8,1531.3,1524,1519,1511.6,1499,1491.1,1483.4,1474.8,1464.9,1454,1442.7,1431.7,1424.3,1413.5,1401.9,1390.1,1372.7,1362.6,1352.1,1342.1,1333.1,1323.1,1314.2,1305.1,1296,1295,1286.9,1279.2,1268,1260,1251.8,1243.2,1234.2,1223.2,1212.1,1200.2,1187.4,1174.3,1166.4,1148,1131.9,1124,1110.7,1101.3,1091.2,1080.6,1070.7,1062.4,1052.2,1043.7,1035.2,1027.6,1016.2,1009.2,1001.4,993.63,986.55,979.33,975.87,969.11,959.89,951.36,942.1,932.61,917.96,907.15,896.03,886.29,874.98,866.18,857.79,848.38,844.37,837.36,830,819.17,810.86,804.01,796.39,789.19,782.37,775.1,768.26,762.2,755.89,750.08,746.98,739.23,733.54,727.56,721.74,716.13,709.85,703.67,696.85,690.13,682.76,675.67,670.49,661.35,654.88,647.04,640.32,633.57,627.24,620.03,613.52,606.68,600.5,594.09,587.02,580.59,573.77,565.2,561.24,553.82,548.04,544.68,539.38,533.87,529.08,523.48,518.43,513.49,507.59,502.17,497.24,492.69,486.69,480.88,474.8,468.02,462.26,456.22,449.89,442.96,436.77,430.15,423.62,417.57,410.86,405.15,399.27,393.33,387.52,382.17,376.74,371.38,366.64,361.44,356.8,352.52,348.2,343.94,339.95,335.74,331.99,328.6,324.78,320.92,317.07,313.07,309.41,305.43,301.28,297.33,292.74,288.6,284.06,279.96,275.25,270.76,266.28,261.24,256.87,252.85,248.25,244.52,240.51,236.51,232.84,229.17,225.32,221.55,218.11,214.57,210.48,207.21,203,199.51,195.66,191.95,188.39,184.79,181.05,177.28,173.94,170.29,166.83,163.19,159.89,156.33,152.83,149.59,146.42,143.59,140.46,137.5,134.23,131.25,128.36,125.76,122.86,120.23,117.12,114.71,112.02,109.37,106.94,104.5,102.52,99.789,97.507,95.362,92.879,90.848,88.43,86.277,84.264,81.815,79.745,77.713,75.858,74.539,72.9
0.9808,1.0554,1.1208,1.1598,1.2654,1.3952,1.4058,1.4086,1.5532,1.6118,1.6404,1.742,1.7228,1.833,1.8898,1.9572,1.9874,2.0838,2.1302,2.213,2.2108,2.2174,2.2708,2.33,2.39,2.298,2.3614,2.4432,2.4658,2.5464,2.553,2.5966,2.6834,2.7374,2.8462,2.8748,2.9438,2.9436,3.1168,3.1164,3.3218,3.4718,3.646,3.8374,4.2284,4.6714,5.1212,5.8392,6.6406,7.8878,9.242,11.036,13.441,16.117,18.961,22.377,26.127,29.921,33.655,37.652,41.715,46.17,50.584,55.197,59.006,63.723,68.863,73.506,77.761,81.699,86.125,90.352,95.192,99.816,104.4,108.65,112.77,117.44,122.24,127.55,133.14,138.48,144.19,149.67,155.27,161.1,166.7,172.75,178.5,185.23,191.73,199.17,206.42,213.08,220.26,227.66,233.9,242.69,250.56,256.58,264.8,273.81,281.91,290.11,298.37,307.16,316.36,326.46,336.74,346.92,356.89,365.41,374.55,385.08,395.37,405.41,416.16,427.38,438.52,451.62,463.43,475.54,486.12,495.77,506.33,517.54,529.29,541.66,553.57,566.39,580.87,591.95,601.98,612.61,622.9,631.33,641.87,653.34,665.04,677.46,688.55,699.35,710.56,720.7,731.36,744.77,754.5,762.01,772.2,781.72,793.31,804.53,816.02,827.99,839.59,851.52,862.16,872.72,886.09,890.4,901.74,918.84,933.12,947.36,961.42,972.15,989.29,1000.2,1010.5,1020.5,1029.3,1035.6,1045.8,1057.3,1070,1083.9,1096.5,1108,1118.4,1128.8,1137.6,1150.4,1158.6,1161.2,1168.1,1176.1,1185.2,1193.2,1201.9,1209.7,1217.3,1224.7,1234,1240.8,1248.1,1250.6,1256.6,1267,1273,1279.2,1281,1294.6,1304.3,1314,1325.1,1335,1345.3,1350,1359,1366.4,1374.6,1380,1389.4,1398.6,1409.2,1428.8,1446.8,1464.4,1481.9,1493.9,1509.8,1526,1543.8,1557.8,1572.5,1586.8,1601.5,1615.5,1632.2,1656.7,1667.1,1683.2,1697.6,1709.5,1721.5,1730.9,1740.7,1750.7,1758.6,1767.3,1776.1,1780.9,1779.5,1782.2,1785.9,1788.8,1793.4,1797.8,1803.2,1816.1,1821.3,1831.1,1841.2,1852.9,1857.8,1866.9,1874.1,1876.4,1879.5,1877.2,1876.4,1874,1879.5,1881.3,1886.1,1887.4,1886.6,1893.3,1900,1909.4,1918,1922.6,1928,1928.5,1926.1,1921.1,1922.6,1919.6,1908.7,1907.3,1906.5,1910.2,1913.8,1918.1,1920.2,1923.6,1926.3,1931.2,1941.5,1936.4,1937.4,1935.7,1934.3,1933.3,1932.6,1930.1,1927.3,1925.9,1925.1,1924.3,1925.7,1926.3,1917,1915.8,1921,1920.5,1917.1,1915.1,1906.1,1912.1,1912.4,1915.3,1917.5,1919,1913,1914.8,1912.6,1909.9,1906.7,1902.2,1897.3,1890.3,1891.7,1885,1877,1872,1861.6,1857,1856.2,1856.1,1855.9,1855.5,1855.9,1852.9,1856.4,1853.7,1848.3,1842,1825,1814,1802.4,1795.1,1785.2,1776.4,1768,1760.1,1753.3,1758.6,1755.4,1753.2,1739.2,1743.9,1741.6,1741.7,1738.5,1734.8,1730.4,1723.3,1717.9,1710.1,1702.6,1693.6,1676.2,1671.5,1659.7,1643.6,1633.3,1630.5,1615.9,1612,1605.3,1598,1592.4,1579.3,1580.8,1573.6,1567.8,1561.9,1547.1,1545.2,1539.2,1529.4,1522.4,1517.2,1510.5,1497.5,1489.6,1481.1,1472.7,1463.3,1452.7,1441.2,1430.3,1422.4,1411.6,1399.9,1387.6,1371.7,1360.7,1349.9,1340.4,1331.2,1321.3,1312.6,1303.9,1294.8,1293.1,1285.4,1278,1265.7,1258.1,1250.2,1241,1231.5,1220.8,1209.7,1196.9,1183.9,1171.7,1164.6,1145.6,1130,1121.6,1108.9,1099.2,1089.9,1079,1069,1060.2,1050.1,1041,1032.4,1025.7,1013.9,1006.8,999.3,991.74,984.32,977.47,974.26,967.15,957.59,949.52,939.89,930.51,916.22,905.71,894.31,883.62,873.68,864.34,856.13,846.92,843.02,835.86,828.89,816.86,810.03,802,794.81,787.99,781.66,773.45,767.74,760.75,754.61,748.78,746.01,738.24,732.33,726.51,720.62,715.58,709.36,702.71,696.36,689.03,681.83,674.43,669.19,659.94,653.13,646.48,638.98,632.38,625.79,618.75,611.98,605.56,599.32,593.56,586.35,579.39,572.96,564.68,560.14,552.71,547.19,543.82,538.75,533.19,528.85,523.35,518.19,513.24,507.36,502,496.38,491.91,486.28,480.47,474.85,468.12,461.81,455.7,448.95,442.52,436.39,429.6,423.1,417.43,410.65,404.49,399.07,392.94,387.04,381.73,376.4,371.33,366.37,361.06,356.61,352.22,347.36,343.82,339.52,335.65,332.16,328.93,324.73,320.84,317.54,312.86,308.89,305.22,300.89,296.85,292.7,288.55,284.1,279.8,274.7,270.52,265.7,261.11,256.59,252.54,248.11,244.6,240.55,236.67,232.52,229.26,225.07,221.48,217.86,214.27,210.48,206.98,202.95,199.33,195.52,192.06,188.05,184.78,181.09,177.42,173.78,170.14,166.79,163.08,159.68,156.4,152.81,149.4,146.34,143.23,140.06,136.84,134.24,130.88,128.13,125.2,122.7,119.85,117.2,114.32,111.69,109.33,106.87,104.33,102.3,99.645,97.336,95.185,92.772,90.754,88.665,86.196,84.083,81.859,79.858,77.648,75.944,74.364,73.107
0.9822,1.0518,1.1848,1.2208,1.2828,1.4058,1.3996,1.572,1.549,1.6334,1.6078,1.736,1.7602,1.8302,1.9246,2.0318,2.0728,2.0816,2.1338,2.1662,2.2802,2.234,2.3476,2.332,2.3722,2.45,2.5128,2.5498,2.4852,2.4688,2.5778,2.6136,2.6798,2.7592,2.8646,2.8752,2.9486,3.0016,3.108,3.16,3.2716,3.4142,3.642,3.9378,4.2876,4.6248,5.2158,5.874,6.907,8.0482,9.4818,11.318,14.089,16.605,19.635,23.096,26.91,30.801,34.803,38.732,42.79,47.445,51.969,56.82,60.812,65.616,70.957,75.505,79.767,84.027,88.113,92.379,97.16,101.57,106.53,110.85,115.15,119.7,124.6,129.92,135.55,141.09,146.83,152.19,157.97,163.59,169.52,175.57,181.17,187.48,194.67,202.18,209.26,216.26,223.11,230.57,236.47,245.75,253.6,259.61,267.61,277.38,285.37,293.68,302.08,310.94,320.66,330.47,340.75,351.09,361.16,369.45,379.87,389.87,400.08,410.76,421.26,432.49,443.92,457.21,469.02,481.23,492.34,500.92,512.43,523.64,535.84,547.99,560.22,573.08,587.65,599.12,609.3,619.99,630.44,639.19,649.4,660.64,672.59,685.15,696.46,707.72,719,729.46,740.72,753.87,763.89,772.13,781.39,792.2,802.98,814.83,826.07,838.59,850.43,862.22,873.39,883.82,896.64,901.43,913.79,930.65,945.65,960.12,974.28,984.69,1002,1013.4,1023.6,1033.9,1043,1049.4,1060,1071.5,1083.6,1098.1,1111.4,1122.9,1133.7,1143.5,1153.1,1166.3,1173.6,1176,1183.4,1191.6,1201.2,1208.8,1217.7,1226.7,1234,1241.2,1250.6,1257.8,1265.3,1267.9,1273.4,1285.6,1291.6,1297.4,1299.2,1312.4,1322,1331.6,1342.9,1353.5,1364.3,1368.3,1378.1,1385.6,1393.8,1399.6,1408.3,1418.4,1429,1448.5,1466.2,1483.7,1502.2,1513.6,1529.8,1547.4,1563.3,1579.1,1593.7,1608.2,1621.7,1637.3,1653.5,1677.4,1689.1,1704.9,1718.5,1731.1,1743.2,1753.1,1763.8,1772.5,1780.7,1789.2,1798.1,1804.6,1801.7,1805.1,1809,1811.7,1815.9,1821.4,1826.6,1839.4,1843.8,1853.3,1863.9,1875.9,1879.8,1889.8,1896.8,1900.2,1902.8,1901.2,1899.5,1897.9,1903.9,1904.8,1908.9,1911.5,1909.5,1915.6,1923.1,1932.2,1941.9,1946.7,1952.1,1952.8,1950.2,1944.9,1947,1943.9,1933.1,1931.1,1930.7,1934.5,1938.1,1941.4,1944.4,1947,1950.5,1955.3,1966.6,1961.6,1962.1,1959.9,1958.2,1957.4,1956.5,1954.1,1952.2,1949.4,1949.5,1948.7,1949.9,1950.8,1941.6,1939.9,1945.4,1944.1,1941.1,1938.5,1929.8,1935.4,1935.7,1938.8,1940.4,1941.5,1936.2,1937.6,1936,1932.5,1929.5,1925.8,1920.5,1913.7,1913.8,1907.7,1901.1,1894.9,1884.5,1879.4,1877.8,1877.6,1877.8,1877.7,1877.3,1873.7,1877.1,1874.4,1868.8,1862.3,1845.7,1834.3,1822.7,1814.9,1804.6,1796.4,1787.6,1778.9,1773.4,1777.9,1773.5,1772.7,1757.7,1763,1761,1760.6,1757.2,1754,1748.4,1741.9,1736.1,1728.6,1720.9,1713.3,1695.7,1689.9,1678,1661.7,1650.7,1647.9,1633,1628.8,1621.6,1614.6,1608.3,1596.2,1598.2,1590.8,1584.6,1579.2,1564,1562.1,1555.7,1546.3,1538.8,1533.8,1527,1513.5,1505.8,1497.7,1488.3,1479.6,1469,1456.8,1445.6,1438.3,1427.6,1415.9,1403.2,1386.8,1376.7,1365,1355.6,1346.5,1335.9,1327.3,1317.9,1309.1,1306.7,1299.2,1291.9,1279.9,1272.3,1263.8,1255.1,1245.4,1234.8,1222.8,1210.8,1197,1183.7,1176.5,1158,1142.2,1133.4,1121,1110.9,1101.2,1090.6,1080.9,1071.9,1062,1053.3,1043.9,1036.8,1025.6,1017.9,1010.1,1002.6,995.09,988.1,984.74,977.43,968.48,960.51,950.25,940.92,926.89,916.24,904.69,893.87,883.97,873.37,865.67,856.44,851.86,844.7,837.62,826.03,817.72,811.13,803,795.87,789.12,781.73,775.28,768.31,762.8,756.38,753.72,745.74,740.3,734.41,728.1,722.56,716.21,710.42,704,696.48,688.61,681.04,676.04,666.85,660.02,652.66,645.85,638.94,632.8,625.44,618.96,612.34,605.77,599.53,592.27,585.65,578.87,570.6,566.36,558.5,552.65,549.85,544.59,539.34,534.35,529,523.52,518.91,512.79,507.48,501.83,497.36,491.64,485.82,479.49,473,466.7,460.57,453.95,447.55,441.29,434.04,427.6,421.85,415.31,409.4,403.9,397.7,391.38,386.13,380.73,375.65,370.46,365.01,360.43,356,351.72,347.24,343.38,339.25,335.53,331.81,328.41,324.06,320.33,316.62,312.58,308.48,304.29,300.2,295.87,291.56,287.08,282.71,277.67,273.35,268.56,263.52,259.17,255.13,250.74,246.95,242.72,238.88,235.05,231.52,227.31,223.68,220.19,216.53,212.47,208.9,205.16,201.27,197.68,193.74,190.02,186.77,182.92,179.54,175.64,171.84,168.27,164.8,161.49,157.99,154.5,151.16,147.99,144.69,141.45,138.75,135.44,132.39,129.48,126.86,123.99,121.22,118.46,115.72,113.02,110.66,107.96,105.36,102.99,100.76,98.519,96.228,93.85,91.672,89.176,86.936,84.966,82.817,80.551,78.666,76.678,75.032,73.826
0.9884,1.094,1.209,1.24,1.3018,1.4276,1.4122,1.5214,1.541,1.5556,1.723,1.7432,1.812,1.8922,1.9104,1.97,2.047,2.0918,2.1224,2.1224,2.1922,2.2298,2.264,2.3872,2.3524,2.4448,2.4316,2.431,2.567,2.6116,2.58,2.6864,2.7294,2.7946,2.7872,2.981,2.8638,3.0436,3.1108,3.3012,3.2946,3.447,3.754,3.9614,4.229,4.8086,5.2588,5.8674,6.852,8.0764,9.546,11.37,13.947,16.533,19.584,23.274,26.817,30.716,34.582,38.66,42.657,47.203,51.823,56.581,60.353,65.161,70.301,75.132,79.394,83.775,88.026,92.316,97.078,101.91,106.77,111.23,115.33,120.34,125.25,130.76,136.22,141.82,147.37,153,158.97,164.65,170.81,177.32,182.77,189.45,196.44,203.93,211.18,218.12,225.1,232.62,238.74,247.9,255.89,262.32,270.62,280.14,288.07,296.88,305.34,314.16,323.72,333.95,344.02,354.71,365.17,373.88,383.99,394.25,404.18,415.24,425.76,436.91,448.49,462.21,474.21,486.22,497.76,507.44,518.09,529.49,541.1,554.01,566.25,579.53,593.75,605.06,615.9,626.49,636.88,645.56,655.98,667.89,680.02,692.41,703.77,714.97,726.4,736.86,747.82,761.37,771.74,779.03,789.44,799.7,810.89,823.06,834.26,847.33,859.21,871.14,882.61,893.36,907.14,911.56,923.41,940.66,954.98,969.98,983.81,994.89,1012.7,1023.4,1034,1044.4,1053.1,1059.2,1069.4,1081.8,1093.8,1108.5,1121.2,1132.9,1143.6,1153.6,1162.9,1176.1,1183.7,1187.4,1194.2,1202,1211.5,1219.6,1227.9,1236.6,1244,1251.8,1260.9,1268.5,1274.9,1277.6,1283.6,1294.4,1300.9,1307.7,1308.5,1322.7,1332.3,1342.8,1353.9,1364.5,1375.4,1379.1,1388.5,1396.1,1403.5,1409.9,1419.3,1429.2,1440.2,1459.7,1478.3,1496.2,1514.5,1526.3,1543,1559.6,1576.6,1591.1,1606.5,1620.6,1635.8,1650.7,1667.6,1692.2,1703.3,1719.6,1733.3,1745.7,1758,1768.1,1777.8,1787.1,1795.5,1803.7,1812.6,1818.6,1816.4,1819.8,1823.1,1825.9,1831.2,1835.6,1840.5,1854.4,1860.3,1869,1881.4,1892,1896.2,1906.1,1913.3,1916.5,1919,1917.2,1915.6,1912.4,1919.6,1920.6,1924.3,1927,1925.3,1932.8,1939.4,1948.4,1957.7,1962.8,1968.4,1968.4,1965.6,1960.2,1962.2,1959,1948.2,1947,1946.6,1950,1953.4,1957,1960.3,1963.2,1965.8,1970.7,1981.6,1976.1,1977.7,1975.4,1973.7,1973.2,1972.3,1969.8,1967.7,1964.5,1964.1,1963.6,1964.6,1964.6,1955.6,1955.2,1960.8,1959.4,1956.7,1954.1,1945.3,1950.3,1952,1954.6,1955.6,1958.1,1951.4,1953,1951.8,1947.2,1945.3,1940.7,1934.8,1928.4,1929.8,1922.8,1915.8,1910.2,1898,1894.4,1891.9,1893.1,1893.3,1892.6,1893.8,1889.8,1894.1,1891.3,1885.4,1879,1861.6,1850.2,1838.7,1831.2,1821.3,1811.6,1803,1794.9,1788.9,1793.9,1790.1,1789.5,1773.9,1779.1,1777,1776.6,1773.8,1769.4,1764.7,1757.4,1751.6,1744.3,1736.8,1727.9,1710.1,1705.3,1692.8,1677,1665.9,1663.9,1648.2,1644,1636.4,1629.6,1623.5,1610.6,1612.7,1604.3,1599.1,1592.5,1577.5,1575.9,1569.2,1559.6,1552.9,1547.8,1539.6,1527.9,1519.3,1511,1501.8,1492.2,1481.3,1469.4,1457.8,1450,1440.2,1427.6,1415,1398.6,1388,1376.2,1366.4,1357.6,1346.9,1338,1329.4,1319.9,1317.2,1309.9,1303.1,1289.7,1283.2,1274.6,1265.1,1254.7,1244.3,1232.3,1219.9,1206.2,1193.1,1186.1,1167.3,1151.4,1142.6,1130.1,1119.9,1109.4,1099.5,1089.1,1080.5,1070.2,1061.8,1052.5,1046.2,1033.8,1027,1019.1,1011.8,1003.7,997.18,993.66,985.31,976.3,968.22,958.54,948.88,933.94,923.41,911.79,901.33,891.16,881.49,873.21,863.48,859.06,851.61,844.84,832.69,825.38,817.49,810.35,803.17,795.95,788.77,782.04,775.29,768.79,763.07,760.38,752.32,746.92,740.71,734.12,728.5,722.66,716.09,709.63,702.01,694.53,687.2,682.05,672.84,665.34,658.66,651.01,644.43,638.07,631.05,624.12,617.67,610.67,604.31,597.36,590.57,584.01,575.48,571.47,563.82,557.78,554.11,549.63,543.99,539.22,534.04,528.6,523.7,517.89,512.23,506.91,502.19,496.1,490.63,484.62,477.46,470.74,464.89,458.11,451.57,445.17,437.87,431.43,425.51,419.13,413.04,407.15,401.19,395.06,389.57,384.6,379.33,373.87,368.53,363.6,359.42,354.39,350.61,346.68,342.38,338.5,335.13,331.23,327.37,323.51,319.38,315.62,311.36,306.82,302.84,298.3,293.95,289.4,285.36,280.37,275.86,271.17,266.23,261.58,257.36,252.95,248.98,245.02,241.26,237.08,233.78,229.4,225.82,222.23,217.98,214.46,210.72,207.33,203.3,199.95,195.78,192,188.64,184.77,181.12,177.44,173.54,169.92,166.23,162.87,159.57,155.71,152.59,149.38,146.15,142.97,139.93,136.49,133.78,130.68,127.93,125.02,122.51,119.34,116.51,113.88,111.43,109.04,106.37,103.87,101.63,99.312,97.014,94.706,92.553,90.314,87.944,85.762,83.627,81.506,79.297,77.43,75.806,74.392
1.0112,1.0946,1.149,1.2588,1.3104,1.3876,1.3614,1.4594,1.5134,1.5554,1.6916,1.7456,1.7426,1.89,1.8486,1.9874,2.0666,2.0458,2.1128,2.1388,2.1638,2.226,2.2638,2.368,2.3778,2.3608,2.456,2.3644,2.5314,2.4808,2.5952,2.6016,2.6936,2.7984,2.8034,2.8698,2.8582,2.9872,3.0566,3.1592,3.1672,3.376,3.6698,3.882,4.276,4.584,5.0102,5.707,6.6338,7.8198,9.2838,11.081,13.387,15.925,19.068,22.566,26.279,29.861,33.646,37.684,41.363,45.955,50.292,55.099,58.614,63.589,68.863,73.269,77.334,81.704,85.764,89.995,94.758,99.535,103.81,108.34,112.28,117.12,122.04,127.32,132.63,138.31,143.81,149.26,155,160.35,166.38,172.64,178.1,184.56,191.51,198.51,205.79,213.32,219.85,227.14,233.27,242.15,250.11,256.12,264.04,273.24,281.31,289.33,297.77,306.54,316.01,325.93,335.8,346.31,356.21,364.64,374.18,384.27,394.39,405.12,415.78,426.87,437.49,451.01,462.1,475.03,485.99,494.75,505.66,516.81,528.89,541.24,553.75,566.69,580.71,591.36,602.1,612.59,622.64,631.22,641.52,652.95,665.01,677.33,688.36,699.13,710.63,720.99,731.83,744.98,754.71,762.92,772.62,782.58,793.7,805.2,816.89,828.68,840.46,852.28,863.42,873.28,887.27,891.56,903.4,920.64,934.46,949.41,963.11,973.9,990.84,1002.2,1012.5,1022.4,1031.3,1037.9,1048,1059.7,1072,1086.4,1099.5,1111,1121.5,1131.5,1141,1153.3,1161.4,1164.1,1170.5,1179.1,1188.2,1197,1204.9,1214.1,1220.5,1227.9,1237.5,1244.7,1251.5,1255.2,1260.3,1271.5,1277.4,1283.1,1285.3,1299,1308.8,1318,1329.9,1339.8,1349.9,1354.3,1363.6,1370.9,1379.2,1384.3,1393.3,1403.8,1414.6,1433.7,1452,1469.1,1487.2,1499.4,1514.9,1531.8,1548.3,1563.1,1578.5,1592.4,1607.4,1622.1,1638.4,1662.6,1673.2,1690,1703,1715.3,1727.7,1737.7,1747.8,1757.6,1765.4,1773.1,1781.9,1788.8,1786.3,1789.3,1792.8,1796,1800.3,1804.9,1810.3,1823.6,1829,1838.4,1849.7,1860.8,1865.1,1873.9,1881.6,1884.5,1886.7,1885.6,1884.5,1882,1888.3,1889.4,1893.7,1895.9,1894.7,1901.2,1907.7,1917.2,1926.3,1931.2,1937,1938,1934.7,1929.7,1931.7,1928.4,1918.4,1915.7,1916.4,1918.1,1922.7,1926.7,1928.5,1932,1934.5,1939.6,1950,1945.1,1946.6,1944.7,1943.1,1942.7,1941.8,1939.5,1937,1935,1934.5,1934.4,1935.2,1935.7,1926.7,1925.2,1931.3,1929.9,1926.5,1924.7,1916.2,1921.3,1922.3,1924.9,1927.1,1928.4,1923.5,1924.1,1923.1,1919.1,1916.4,1911.9,1907.2,1900.5,1901.8,1895.6,1887.9,1882.9,1871.4,1866.9,1865.1,1865.2,1865.8,1865.4,1865.4,1862.8,1866.7,1863.8,1857.6,1852,1834.5,1823.7,1812.6,1804.9,1794.6,1786.4,1777.6,1769.6,1763.7,1768.6,1764.6,1763.4,1748,1753.8,1751.7,1751.7,1748.6,1744.9,1739.9,1733.4,1727.3,1720,1712.3,1703.6,1686.8,1680.7,1669.7,1653.4,1642.6,1640.4,1625.3,1621,1614,1607.2,1600.4,1588.8,1590.3,1582.3,1576.6,1571,1555.7,1554.2,1547.5,1538,1531.2,1525.8,1518.6,1506.4,1497.8,1489.8,1481,1471.5,1461.8,1449.3,1438.1,1430.2,1420.2,1408.2,1395.2,1380.2,1369.7,1357.8,1348.1,1339.6,1328.8,1320.3,1311.2,1302,1300.5,1293.1,1286.2,1273.3,1265.8,1257.9,1248.1,1238.4,1228.1,1216.5,1204.5,1190.9,1178.2,1171.2,1152,1136.7,1128,1115.7,1105.5,1095.6,1085.2,1075.3,1067,1056.6,1047.3,1038.8,1031.7,1020.4,1012.6,1004.8,997.91,990.64,983.76,980.3,973.26,964.2,956.02,946.28,936.3,921.85,910.99,899.68,889.76,879.19,870.11,861.32,852.27,848.47,840.98,833.92,821.65,814.4,807.23,799.95,792.73,786.49,778.67,772.49,765.74,759.19,753.36,750.58,742.41,737.18,731.29,725.4,719.7,712.88,707.23,700.76,693.47,685.98,678.48,673.29,664.2,657.36,650.36,643.23,636.19,629.74,622.92,616.22,609.4,603.17,596.95,590.29,583.28,577.25,568.18,564.15,556.28,550.72,547.52,542.45,537.28,532.21,526.32,521.26,516.74,510.22,505.05,499.43,495.5,489.25,483.35,477.25,471.12,464.69,458.77,451.96,444.95,438.77,432.12,425.5,420.27,413.24,406.98,401.32,395.09,389.53,384,378.6,373.64,368.76,363.36,358.27,354.16,349.7,345.32,341.69,337.49,333.55,330.12,326.36,322.48,318.85,315.11,310.84,306.81,302.65,298.59,294.15,289.96,285.54,281.62,276.6,272.04,267.25,262.73,258.27,254.1,249.6,245.79,241.89,237.9,234.03,230.87,226.45,222.76,219.03,215.32,211.65,208.26,204.45,200.66,196.78,193,189.47,185.81,182.16,178.67,175.06,171.23,167.79,164.43,160.63,157.21,153.85,150.59,147.3,144.35,141.12,138.09,134.98,131.98,129.01,126.26,123.51,120.73,117.96,115.12,112.69,109.78,107.39,104.94,102.71,100.53,97.918,95.679,93.411,91.076,88.799,86.775,84.505,82.396,80.214,78.038,76.404,74.642,73.583
0.9176,0.9844,1.1522,1.1768,1.2918,1.3456,1.405,1.5006,1.4768,1.6192,1.6404,1.6866,1.7668,1.8568,1.9384,1.9034,1.9496,2.1156,2.1154,2.2234,2.1998,2.2148,2.2192,2.3272,2.3342,2.4296,2.4044,2.3688,2.4848,2.5598,2.6476,2.663,2.7034,2.7414,2.8374,2.9272,2.9168,3.0668,3.0868,3.117,3.2748,3.457,3.5846,3.8376,4.1292,4.7468,5.0876,5.8346,6.878,7.9826,9.419,11.264,13.725,16.313,19.497,22.935,26.691,30.651,34.427,38.294,42.449,47.069,51.553,56.221,60.351,65.256,70.441,74.942,79.407,83.425,87.609,91.751,96.464,101.19,105.76,110.26,114.14,118.98,123.86,129.05,134.67,140.21,145.5,151.23,156.8,162.55,168.42,174.5,180.05,186.49,193.78,200.75,207.88,215.07,221.82,229.18,235.44,244.52,252.27,258.23,266.65,275.62,283.81,292.25,300.79,309.28,318.99,328.86,339.06,349.2,359.34,367.81,377.72,387.85,397.88,408.91,419.12,430.08,441.79,455.19,466.28,478.79,490.19,499.04,510.35,521.11,532.91,545.59,558.14,570.5,584.77,596.12,606.57,617.28,628.05,636.23,646.62,657.91,669.81,682.72,693.51,704.9,715.87,726.76,737.49,750.49,761.11,768.2,778.31,788.72,800.04,811.96,823.1,835.16,847.36,858.61,870.78,880.96,893.92,899.12,910.53,927.34,941.96,957.15,970.6,981.06,998.2,1009.5,1020,1029.7,1039.5,1045.2,1056.6,1067.4,1080,1094.7,1107.2,1119.2,1129,1139.6,1149,1161.4,1169.1,1172.2,1179.4,1187.3,1196.7,1204.9,1213,1222.3,1229.6,1236.7,1246.3,1253.7,1261.1,1263.9,1269.9,1280.6,1286.7,1293.3,1294.3,1308.5,1318.5,1327.3,1339.1,1349.3,1359.6,1364,1372.7,1380.8,1389.1,1395,1404,1413.2,1424.6,1444.4,1462.6,1478.7,1497.6,1509.3,1525.2,1541.9,1559.2,1573.7,1588.7,1603.1,1617.1,1631.8,1649.1,1672.6,1683.6,1700.2,1713.7,1725.7,1738.3,1748.5,1758.5,1767.5,1775.9,1783.7,1792.5,1799.2,1797,1800,1803,1806,1810.8,1815.4,1821.2,1834.1,1838.9,1848.9,1859.7,1871.4,1875.3,1885.7,1892.3,1895.2,1897.7,1896.6,1894.2,1892.1,1898.8,1900,1904,1906.3,1905.2,1911.4,1918.4,1927.8,1936.5,1941.7,1947.5,1948.1,1945.6,1940.3,1942,1939.2,1927.8,1926.3,1926,1929.5,1933.5,1936.9,1939.3,1942.5,1944.9,1950.2,1961.1,1956.2,1957.6,1955.2,1953.6,1953.2,1952,1949.5,1948.5,1945.5,1945.2,1944.5,1945.7,1945.7,1937.8,1936.3,1941.3,1940.1,1936.4,1934.6,1925.8,1931.2,1931.5,1935,1936.5,1938.5,1932.6,1933.8,1932.4,1929.5,1925.6,1922.2,1916.8,1910,1909.8,1904.4,1896.6,1892,1880.5,1876.8,1873.8,1874.1,1874.1,1874.4,1874.1,1871.1,1873.9,1871.6,1866.2,1859.6,1842.4,1831.1,1820.4,1812.3,1803,1794.4,1784.5,1776.6,1769.9,1774.9,1771.9,1770.9,1755.3,1760.7,1758.3,1758.3,1755,1752,1746.4,1739.7,1733.5,1726.8,1718.8,1710.8,1692.9,1687.1,1676.3,1659.7,1649.4,1646.6,1631.7,1627.4,1620.1,1613.5,1606.6,1594.5,1595.9,1588.9,1582.9,1576.5,1562.5,1560.6,1553.6,1544.1,1537.3,1531.4,1524.4,1512.2,1503.4,1495.6,1486.9,1477.9,1467.6,1455.1,1443.6,1436.3,1426.3,1413.6,1401.7,1384.5,1374.6,1363.5,1353.3,1344.1,1334.4,1325.3,1316.2,1307,1304.8,1297.4,1290.7,1277.6,1270.1,1262.4,1253.1,1243.2,1232.7,1221.5,1209.1,1195.8,1182.8,1174.9,1156.5,1140.8,1131.8,1119.6,1110.3,1100.3,1089.4,1079.2,1070.4,1059.8,1051.5,1042.8,1035.7,1024.4,1016.6,1008.6,1001.2,994.03,987.36,983.5,976.1,967.62,959.26,949.31,940.22,925.11,915.14,902.82,892.54,882.06,873.13,864.19,855.39,851.53,844.28,836.74,825.15,816.78,810.4,802.12,795.62,789,781.16,774.45,768.05,762.07,755.57,753.36,745.56,739.44,733.43,727.53,722.02,715.83,709.41,702.5,695.53,688.04,680.53,675.62,665.93,659.67,652.26,645.04,638.72,632.19,625.05,618.51,611.68,605.06,598.96,591.98,585.5,578.48,570.39,565.68,557.97,552.56,548.95,544.1,538.72,534.18,528.68,523.09,518.52,512.17,506.74,501.16,496.83,490.81,485.29,479.03,472.68,466.28,460.18,453.26,446.42,440.52,433.31,426.93,421.1,414.27,408.78,403.2,396.94,390.86,385.73,380.12,374.89,369.41,364.55,359.86,355.3,351.02,346.79,342.86,338.77,334.63,331.38,327.7,323.57,320.04,315.6,312.05,308.37,303.82,299.52,295.23,291.03,286.83,282.11,277.3,272.94,268.39,263.32,258.96,254.79,250.28,246.64,242.7,238.82,234.38,231.35,227.15,223.45,219.69,216.13,212.26,208.77,204.93,201.39,197.54,193.98,189.87,186.76,182.98,179.32,175.67,171.74,168.33,164.45,161.2,157.6,154.24,151.18,148.01,144.54,141.66,138.47,135.23,132.26,129.19,126.51,123.9,120.9,118.19,115.37,112.66,110.36,107.75,105.08,102.78,100.78,98.203,95.929,93.674,91.735,89.178,87.046,84.61,82.586,80.522,78.4,76.612,74.961,73.722
0.9348,1.0586,1.1104,1.1882,1.2482,1.4482,1.4446,1.4786,1.462,1.5892,1.6448,1.6652,1.7466,1.8696,1.8888,2.061,1.9506,2.1792,2.073,2.1706,2.2438,2.2468,2.3128,2.3276,2.3768,2.3666,2.4882,2.4998,2.5008,2.6054,2.567,2.5666,2.676,2.6888,2.7156,2.7976,2.902,2.899,3.0372,3.181,3.3172,3.4174,3.5056,3.8158,4.1032,4.545,5.1032,5.7068,6.8034,7.8672,9.0918,11.007,13.386,15.861,19.037,22.205,26.008,29.598,33.655,37.354,41.274,45.686,50.112,54.86,58.726,63.553,68.473,72.95,77.277,81.413,85.655,89.888,94.245,99.09,103.32,107.68,111.78,116.23,120.98,126.08,131.86,136.85,142.62,148.12,153.72,159.01,164.94,170.8,176.35,182.65,189.34,196.41,203.81,210.92,217.69,224.96,231.04,240.08,247.95,253.88,261.97,271.07,278.76,287.21,295.73,303.81,313.23,323.09,333.06,343.3,352.84,361.13,371.28,381.12,390.97,401.61,412.23,423.26,434.14,447.34,458.94,471.03,482.04,490.91,501.83,512.99,524.36,536.53,548.95,561.39,575.68,586.76,597.13,607.38,618.14,626.56,637.2,647.98,659.48,671.56,682.71,693.19,704.68,715.02,725.71,739.31,748.78,756.61,766.7,776.9,787.93,799.16,810.43,822.36,834.26,845.25,856.6,866.18,879.05,883.41,894.88,911.19,925.66,939.97,953.59,964.48,981.88,993.67,1003.2,1013.4,1022.7,1028.4,1039,1050.3,1062.7,1077.3,1089.6,1101.2,1111.6,1122.1,1131.7,1144.1,1152.3,1155.7,1162.4,1169.9,1179.6,1187.9,1196.7,1205.5,1212.8,1219.7,1229,1236.6,1244.2,1246.7,1252.2,1263.8,1269.9,1275.4,1277.5,1290.9,1299.8,1309.6,1321,1331,1341.1,1345.8,1355,1362.1,1370.9,1375.8,1385,1394.1,1404.3,1423.7,1441.1,1457.9,1476.5,1487.9,1504.1,1520.9,1537.3,1551.9,1567,1581.5,1595.7,1609.8,1627,1649.7,1660.5,1677.1,1691,1703.3,1715.6,1724.9,1735.3,1745.1,1753.6,1761.4,1769.6,1775.9,1773.9,1777.7,1780.4,1783.1,1788.2,1792,1797.4,1809.8,1814.8,1824.7,1835.1,1847.1,1850.1,1861.4,1867.9,1870.3,1875.1,1872.9,1871.4,1869.5,1875.1,1876.6,1880,1882.7,1881.3,1886.8,1894.4,1903.2,1912.3,1917.1,1922.3,1923.5,1921.8,1916.6,1918.8,1915.7,1905.1,1903.2,1902.8,1905.5,1910.2,1914,1916.7,1919.7,1922.1,1927.2,1937.8,1933.4,1933.7,1932.5,1930.6,1930.3,1928.5,1926.8,1924.9,1922.3,1921.6,1921.6,1923,1922.7,1913.7,1913,1919.1,1917.4,1914,1911.9,1903.1,1908.6,1909.4,1912.9,1915.2,1916.4,1911.2,1912.2,1910.8,1907.2,1905.1,1900.6,1895.3,1889.9,1889.8,1884.1,1875.5,1870.2,1858.7,1855.1,1852.6,1852.7,1852.4,1852.2,1851.9,1849.4,1852.3,1849.6,1844.1,1837.9,1820.4,1808.5,1799.2,1790.7,1780.1,1772.5,1762.7,1754.7,1748.6,1752.4,1749.7,1748.6,1733.4,1738.5,1736.6,1736,1732.4,1729.9,1724.7,1718.2,1713.3,1705.1,1697.5,1690.1,1672.7,1668.2,1655.9,1639.4,1629.1,1626.4,1611.1,1607.3,1599.3,1593.3,1587.2,1574.4,1576.8,1570.1,1564.4,1558.4,1544.6,1542.3,1536.7,1527.7,1520.5,1516,1507.8,1495.4,1487.8,1479.7,1471.3,1462.1,1451.2,1440.2,1428.7,1420.7,1411.1,1398.8,1386.3,1370,1359.7,1349.2,1339.2,1330.2,1320.8,1311.7,1303.1,1293.8,1291.7,1284.6,1277.2,1265.1,1257.7,1249.2,1240.5,1230.6,1221,1209.4,1198.2,1184.9,1172.2,1164.3,1146.1,1130.2,1121.9,1109.9,1099.7,1089.7,1079.9,1068.8,1060.1,1050.1,1041.4,1033.2,1025.7,1013.8,1006.9,998.79,992.03,984.31,977.16,974.45,966.96,958.07,950.22,940.26,930.99,916.44,906.09,894.72,884.06,874.2,864.94,856.14,847.22,843.43,836.01,828.79,817.88,809.6,802.91,795.31,788.18,781.13,774.12,767.11,761.17,754.99,749.04,746.15,738.04,732.74,726.55,720.94,715.41,708.37,702.81,696.13,689.42,681.81,674.78,669.58,660.62,653.46,646.61,639.91,633.26,626.56,619.67,612.81,605.91,599.68,593.02,586.6,579.93,573.41,564.24,560.53,552.49,547.08,543.21,538.59,533.12,528.88,523.26,518.2,512.72,507.03,501.7,496.46,492.14,486.44,480.6,474.34,468.14,461.73,455.87,449.16,442.36,436.02,429.92,422.97,417.27,411.08,404.59,398.85,392.73,387.16,381.8,376.11,371.15,366.6,361.29,356.26,352.18,347.67,343.84,339.49,335.53,331.33,328.47,324.34,320.67,317.57,313.1,308.99,305.3,300.87,296.78,292.7,288.17,284.24,279.76,274.87,270.48,265.74,260.99,256.78,252.54,248.03,244.33,240.77,236.69,232.29,229.4,225.12,221.58,217.8,214.12,210.52,206.81,203.06,199.5,195.64,191.86,188.08,184.89,180.8,177.52,173.76,170.2,166.56,162.99,159.82,156.07,152.74,149.54,146.54,143.25,140.18,137.33,134.1,131.03,128.43,125.37,122.61,120.06,117.21,114.33,111.95,109.32,107,104.37,102.22,99.561,97.231,95.24,93.017,90.707,88.248,86.134,83.872,81.745,79.693,77.361,75.924,74.246,72.898
1.0094,1.0306,1.1338,1.2184,1.2886,1.3656,1.435,1.4714,1.5562,1.5848,1.6718,1.7298,1.8046,1.8658,1.8434,1.944,1.9974,2.0684,2.1508,2.1138,2.2172,2.2486,2.356,2.3722,2.3614,2.3546,2.5058,2.5506,2.4992,2.5746,2.6444,2.573,2.682,2.766,2.7764,2.908,2.978,2.9098,3.0946,3.14,3.2664,3.368,3.5272,3.7698,4.0452,4.4214,4.9116,5.5008,6.1748,7.24,8.2974,9.9292,12.032,14.179,16.808,19.82,23.213,26.894,30.389,34.031,37.711,41.684,45.797,50.109,53.518,58.197,62.948,67.402,71.584,75.265,79.696,83.836,88.158,92.714,96.964,101.08,105.51,109.92,114.64,119.48,125.1,130.31,136.04,141.1,146.83,151.87,157.65,163.7,169.33,175.26,181.9,188.86,195.88,202.59,209.39,216,222.62,230.67,238.84,244.58,252.25,260.47,268.29,276.37,284.2,292.42,301.39,310.43,320.13,329.68,339.32,346.94,356.3,364.89,374.48,384.81,394.99,405.87,416,428.78,439.52,450.58,460.98,469.74,480.04,490.66,501.63,513.74,526.05,538.64,552.44,563.16,573.23,583.25,592.99,601.16,611.61,622.14,634.08,645.2,655.94,666.81,676.97,687.99,698.17,710.92,721.16,728.56,738.25,748.9,759.78,770.84,782.42,794.41,806.73,817.5,828.74,839.25,852.35,857.14,870.1,886.72,901.58,915.77,930.7,941.6,957.68,968.97,978.54,988.3,996.99,1003.6,1014.4,1026.1,1038.2,1052.2,1064.7,1076.5,1086,1095.7,1104.5,1117.1,1124.3,1127.4,1133.2,1141.2,1149.8,1157.2,1166,1173.2,1179.5,1186.5,1194.6,1201.5,1209,1211.1,1215.9,1226.3,1232.1,1238.1,1239.8,1254.3,1263.8,1273.7,1284.5,1295.6,1305,1309.4,1317,1323.9,1331.3,1337.4,1345.9,1356.2,1367.5,1387.2,1405.5,1422,1439.5,1451.3,1467.2,1483.1,1499.2,1512.8,1527.7,1542.3,1555.2,1571,1588.7,1611.1,1622.2,1637.9,1650.1,1661.6,1674.1,1682.4,1692.2,1701.6,1709.8,1717.4,1726.1,1731.3,1729.8,1732.9,1736.2,1738.5,1743.1,1749.1,1754.4,1767.3,1773.6,1783,1794.3,1806.3,1810.3,1818.9,1825.2,1828,1829.8,1827.4,1825.7,1823.4,1830.7,1831.8,1836,1839.4,1838.7,1845.4,1853.1,1861,1869.7,1874.7,1879.3,1878.6,1875.3,1870.6,1873.1,1868.5,1860,1858.5,1858.9,1861.9,1865.7,1870.8,1873.6,1876.3,1878.5,1883,1892.8,1887.2,1888.4,1886.8,1884.9,1884.3,1883.1,1881.6,1880,1878.2,1878.6,1878.3,1879.3,1879.4,1870.2,1869,1875,1874.1,1871.7,1870.5,1861.5,1868.8,1869.6,1871.2,1872,1874.3,1868.1,1869.6,1868.8,1865.1,1862.7,1858.8,1854.9,1848,1849.9,1845.6,1838.9,1834.6,1824.1,1821.3,1820.3,1822.5,1822.2,1821.8,1823.4,1820.3,1824.3,1821.9,1816.8,1809.9,1794.5,1784.1,1773.2,1766.6,1757.7,1749.5,1741.4,1733.7,1729.5,1735.3,1732.4,1730.8,1716.1,1721.1,1719.7,1720.8,1717.6,1713.8,1708.6,1702.8,1696.6,1689.7,1681.9,1673.8,1657.4,1651.7,1641,1627.3,1615.8,1614.2,1599.2,1595.9,1589.9,1582.5,1576.8,1565.4,1566.3,1559.6,1552.9,1545.8,1532.8,1531.5,1525.1,1516.1,1509.7,1504.7,1497.9,1485.3,1476.8,1468.8,1460.3,1451.4,1441.4,1429.6,1418.6,1411.1,1400.7,1388.5,1376.3,1361,1350.7,1339.2,1331,1321.8,1311.2,1303.2,1293.9,1285.9,1284.4,1277.1,1270.8,1257.1,1250.5,1242.3,1233.4,1223.1,1212.8,1201.1,1189.4,1176.2,1163.4,1156.2,1138.4,1122.6,1114.7,1103.4,1093.4,1084.4,1073.6,1064,1055.1,1045.2,1036.7,1028.4,1021.8,1009.6,1002.4,994.82,988.28,981.3,974.54,971.49,964.34,954.48,946.49,937.17,928.12,913.03,902.51,890.86,881.45,871.78,862.05,853.86,845.25,841.96,834.36,827.62,815.73,808.58,801.57,794.35,786.87,780.54,773.8,767.21,760.54,754.69,749,746.12,737.89,733,727.16,721,715.26,709.37,703.32,696.15,688.58,681.42,674.38,669.54,659.99,652.65,646.42,638.99,632.71,626.33,619.51,612.67,606.72,600.43,594.06,587.8,581,574.79,565.91,561.88,554.42,549.11,545.14,540.63,534.57,529.99,524.86,519.43,514.3,508.71,503.25,497.71,492.89,487.2,481.27,475.82,469.25,463.13,456.84,449.89,443.7,437.1,430.3,424.12,418.17,412.06,406.12,400.58,394.48,388.79,383.32,377.82,372.65,367.92,362.66,357.89,353.51,349.38,345.19,341.64,337.34,333.61,330.41,326.44,322.39,318.99,314.4,310.82,307.13,302.81,298.85,294.06,289.93,285.31,281.03,276.45,271.82,266.96,262.07,258.09,253.6,249.29,245.2,241.45,237.3,233.68,229.87,225.99,222.59,218.76,215.21,211.43,208,204.33,200.54,197.08,193.09,189.45,185.76,182.29,178.51,175.02,171.24,167.62,163.97,160.37,157.07,153.64,150.3,147.08,144.03,140.95,137.81,134.72,131.72,128.68,125.79,122.91,120.16,117.44,114.76,112,109.76,107.14,104.61,102.31,99.744,97.529,95.553,93.139,91.035,88.789,86.419,84.516,82.308,80.215,78.339,76.614,74.757,73.446
0.9942,1.085,1.2024,1.2342,1.2784,1.4018,1.3896,1.388,1.5524,1.6664,1.5958,1.718,1.6822,1.9176,1.8902,1.9994,1.9704,2.0704,2.0642,2.104,2.1614,2.149,2.15,2.2702,2.2292,2.3958,2.4744,2.423,2.4708,2.514,2.5668,2.5618,2.6592,2.7498,2.6772,2.836,2.8596,2.8856,3.0354,3.1278,3.2566,3.3114,3.4364,3.6912,4.0146,4.3458,4.721,5.3196,6.0926,7.1324,8.2326,9.6364,11.682,13.668,16.279,19.251,22.337,25.661,29.332,32.931,36.489,40.296,44.018,48.478,51.756,55.777,60.659,65.097,69.142,72.841,77.229,81.316,85.757,90.011,94.23,98.662,102.78,107.05,111.8,116.37,121.37,126.76,131.84,137.34,142.68,147.93,153.62,159.13,164.64,170.85,177.11,183.77,190.46,197.13,203.99,210.96,217.23,225.07,232.76,238.78,245.91,254.19,261.68,269.49,277.16,285.43,293.79,302.81,311.88,321.24,330.87,338.96,347.28,355.92,365.48,374.93,384.76,395.09,405.49,418.15,428.59,439.74,449.98,458.2,468.43,478.3,489.1,500.59,512.42,524.5,538.47,548.82,559.1,568.54,578.42,586.47,595.88,606.65,617.98,629.19,640.16,650.77,660.54,670.66,680.81,693.62,702.91,710.06,719.82,729.47,740.59,751.6,762.4,774.09,785.84,796.81,807.7,817.65,830.64,834.89,846.99,862.62,875.97,890.97,904.33,915.57,931.42,942.5,953.52,962.55,971.49,977.42,988.63,999.67,1010.7,1025.2,1037.4,1049.1,1059,1068.6,1078.1,1090.4,1097.4,1100.7,1107.4,1114.9,1123.2,1130.6,1138.6,1147.3,1152.8,1160.5,1169.2,1175.9,1182.4,1185.2,1190,1199.9,1205.3,1210.8,1212.8,1226.2,1236,1245,1255.7,1266.1,1275.7,1279.2,1287.6,1294.7,1302.2,1308.2,1316.7,1325.4,1335.8,1354,1371.9,1388.1,1404.8,1416.6,1431.9,1447.5,1462.9,1477.2,1491.2,1505.2,1519.1,1533.2,1549.9,1573.1,1583.6,1598.4,1611.5,1622.6,1635.2,1644.4,1654,1662.2,1670.9,1678.1,1687.5,1691.9,1691,1693.5,1696.6,1699.6,1704.2,1709,1715,1727.4,1731.8,1741.8,1752.2,1762.4,1767.7,1776.2,1782.7,1785.4,1788.5,1786.6,1784.8,1783.6,1789.5,1790.4,1795.2,1797,1796,1803,1809.4,1818.5,1825.8,1831.9,1836.5,1837.2,1834.5,1830.1,1831.7,1828.4,1819.1,1817,1818.3,1820.8,1824.6,1828.4,1831.6,1834.1,1837.3,1842.4,1851.2,1846.8,1847.8,1846.8,1844.7,1844.7,1843.8,1842,1840.1,1838.1,1837.3,1836.9,1839.2,1838.9,1830.8,1829.7,1836.2,1834.6,1831.8,1830,1821.4,1827.4,1828.6,1831.7,1832,1835.3,1829.5,1830.2,1829.1,1826.8,1823.7,1820.1,1816.5,1809.8,1811.7,1806.1,1800.4,1795.5,1784.9,1782.6,1780.7,1782.4,1781.5,1782.5,1782.6,1780.8,1784.5,1782.1,1777.8,1771.3,1755.3,1745.4,1734.4,1727.7,1718.4,1710.1,1702.1,1694.4,1690,1695.6,1692.1,1691.2,1677.2,1682,1680,1680.8,1678.1,1674.5,1670.1,1663.4,1658.4,1651.1,1643.5,1635.6,1620,1614.7,1604.1,1589.1,1578.9,1576.3,1562.3,1558.7,1552,1545.2,1539.9,1527,1528.9,1522.2,1516.2,1510.6,1497.2,1496,1489.9,1481.2,1474.2,1469.2,1463.1,1450.3,1442.7,1435.1,1426.4,1418.1,1407.4,1397.1,1385.7,1378.7,1368.8,1356.9,1344.8,1331,1320.5,1309.4,1300,1291.9,1282.3,1273.8,1265.4,1256.7,1255.4,1249.2,1242,1230.1,1222.6,1215,1206.4,1197.2,1186.5,1175.8,1164,1151.1,1139.5,1132.5,1115.1,1099.8,1090.8,1079.8,1069.8,1060.3,1049.5,1040.1,1031.7,1021,1013,1004.8,998.53,986.77,979.89,973.07,966.87,959.44,952.32,949.48,942.14,933.24,925.19,915.31,906.33,892.41,882.2,871,861.04,852.05,842.73,834.76,826.32,822.66,815.6,808.88,797.77,789.9,783.44,776.38,769.43,763.28,756.63,750.1,743.36,737.15,731.95,728.98,721.55,716.08,710.15,705,699.36,693.01,687.17,680.51,673.21,666.07,659.13,654.52,644.86,638.57,631.93,624.46,618.37,611.81,605.25,598.74,592.86,586.09,580.18,573.42,567.39,560.66,552.48,548.61,540.84,535.76,531.79,527.28,521.33,516.81,511.59,506.35,501.5,496.21,491.53,486.06,481.53,475.67,469.69,464.59,458.45,451.62,446.19,439.66,433.21,426.97,420.37,414.47,408.62,402.21,396.57,391.1,384.86,379.29,374.01,368.9,363.78,359.08,354.09,349.59,345.47,340.91,337.13,333.07,329.02,325.43,322.31,317.82,314.32,310.87,306.76,302.92,299.19,294.95,291.13,286.88,282.66,278.47,274.13,269.34,264.94,260.38,255.8,251.59,247.39,243.23,239.66,235.8,232.02,228.26,224.93,220.6,217.33,213.66,210.09,206.16,203.05,199.04,195.23,191.82,188.27,184.73,181.19,177.52,173.88,170.59,166.71,163.38,159.85,156.53,153.03,149.61,146.54,143.29,140.17,137.15,134.11,131.18,128.1,125.37,122.62,119.98,117.31,114.46,111.81,109.48,107.04,104.64,102.03,99.781,97.557,95.27,93.204,90.947,88.68,86.491,84.485,82.318,80.082,77.841,76.029,74.302,72.83,71.577
0.8686,1.0618,1.1024,1.146,1.2044,1.2882,1.4704,1.424,1.482,1.5424,1.6226,1.6688,1.716,1.8066,1.8106,2.0416,2.0084,1.9996,1.9668,1.9662,2.1214,2.2284,2.2434,2.2426,2.2612,2.2686,2.4136,2.4764,2.4324,2.4542,2.4658,2.4938,2.5796,2.6554,2.6572,2.777,2.807,2.9406,2.9292,3.0298,3.1142,3.3548,3.4432,3.5368,3.881,4.2266,4.7142,5.228,5.8858,6.8344,8.0326,9.4264,11.205,13.186,15.713,18.755,21.878,25.097,28.445,31.905,35.465,39.371,42.781,46.879,50.19,54.434,59.149,63.429,67.719,71.459,75.893,79.755,84.145,88.668,92.832,97.021,101.1,105.5,110,114.7,119.66,124.68,129.87,135.05,140.85,146.2,151.35,156.81,162.48,168.46,174.65,181.29,187.73,194.31,201.03,208.03,214.68,222.08,230.19,235.86,243.21,250.84,258.65,266.18,274.26,281.97,290.4,299.09,308.53,317.65,327.43,335.31,343.25,352.13,361.26,370.96,380.77,390.93,401.09,413.22,424.08,435.35,445.2,453.35,463.74,473.7,484.32,495.49,507.22,519.18,532.67,543.26,553.09,563.29,572.7,580.39,590.34,600.51,611.8,623.36,633.88,644.45,654.51,664.87,674.69,686.9,696.23,703.98,713.37,723.1,733.54,745.25,756.07,767.73,778.8,789.76,800.42,810.75,823.33,827.96,839.52,855.32,868.52,882.44,896.39,907.26,923.91,934.94,945.37,954.48,963.52,969.39,980.07,991.77,1003.9,1017.9,1029.6,1041.6,1051,1061.5,1070.1,1083.1,1090,1093.4,1099.6,1107.3,1115.6,1123.5,1131.5,1139.8,1146.6,1153.5,1162.8,1169.2,1176.3,1178.9,1184.1,1194.5,1200.4,1205.9,1208.1,1221.5,1230,1239.3,1250.5,1259.8,1269.5,1273.4,1281.7,1289.3,1296.8,1302.3,1310.4,1319.3,1328.9,1348.1,1364.6,1381.3,1398.3,1408.9,1424.2,1440.1,1456.3,1469.9,1484.5,1497.7,1512.1,1525.4,1541.3,1563.4,1574.9,1590.1,1603.2,1614.4,1626.8,1636.2,1645.7,1654.8,1663.3,1670.4,1679,1684.9,1682.9,1685.7,1689.2,1692.6,1696.4,1701.4,1706.3,1719.3,1723.7,1733.1,1743.5,1754.5,1759,1767.7,1774.3,1777,1780.1,1778.5,1777.3,1775.9,1781.5,1783,1787,1789.1,1788,1794.5,1801.8,1809.8,1818.7,1823.2,1828.4,1829.6,1826.7,1822.8,1824.5,1821.7,1811.6,1810.7,1811,1813.4,1817.8,1821.4,1823.5,1827.2,1829.7,1834.3,1844.8,1839.8,1840.9,1839.4,1837.9,1838.5,1837.5,1835.1,1834,1831.5,1831.9,1831.2,1832.4,1833.2,1823.8,1822.9,1828.7,1827.2,1825,1822.8,1814.8,1819.6,1821.4,1824.8,1826.7,1828.3,1822.9,1824.4,1823.3,1820.1,1817.6,1814.7,1810,1804.5,1805.4,1799.6,1794.3,1789.6,1778.8,1775.6,1774.5,1774.6,1775.2,1775.5,1775.8,1773.5,1777.4,1775.3,1769.7,1764.4,1748.6,1737.1,1727.3,1720.1,1710.8,1703,1694,1687.4,1681.7,1686.2,1683.1,1682.1,1667.9,1673.2,1671.2,1671.2,1668.4,1665.7,1661.4,1655.3,1649.7,1642.7,1635.8,1627.8,1612,1607.5,1595.4,1580.5,1570.7,1569.1,1553.6,1550.8,1544.3,1537.3,1531.9,1519.6,1521.4,1514.6,1508.4,1503.3,1489.9,1488.8,1482.4,1473.3,1466.8,1461.7,1455.3,1443.2,1434.8,1428,1419.5,1410.9,1401.2,1389.9,1379.2,1372.5,1362.4,1351.6,1338.9,1323.9,1313.8,1303.8,1294.3,1285.5,1276.1,1267.7,1259.9,1250.7,1249.7,1243,1235.5,1223.9,1217.1,1209.1,1200.8,1191.6,1181.9,1170.9,1159.1,1146.4,1133.7,1127,1109.4,1094.6,1086,1074.6,1064.5,1055,1044.5,1034.9,1026.5,1016.7,1008.6,999.5,993.1,982.06,975.2,967.83,960.65,953.7,947.05,944.15,937.56,928.63,920.76,911.14,901.99,887.77,878.06,866.9,857.29,847.66,838.35,831.02,821.7,818.35,810.89,804.64,793.95,786.73,779.31,772.08,765.06,759.37,751.72,745.71,739.06,733.38,727.6,724.75,717.19,711.9,706.36,700.61,695.24,689.33,683.2,676.74,669.73,662.24,655.84,650.74,641.85,634.94,628.31,621.56,614.74,608.58,602.03,595.27,589.28,583.14,577,570.27,563.82,557.45,549.23,544.92,537.66,532.09,528.49,523.6,517.93,513.72,507.86,503.16,498.69,493.3,488.26,482.78,478.24,473.11,467.24,461.88,455.56,449.39,443.52,436.95,430.64,424.65,418.03,411.87,406.34,400.06,393.72,388.42,382.46,376.68,371.41,366.8,361.68,356.93,352.25,347.26,343.27,338.91,334.87,331.03,327.03,323.36,320.25,316.41,312.35,308.71,304.75,301.29,297.64,292.97,289.16,285.14,280.97,276.59,272.63,267.92,263.46,259,254.58,249.98,246.2,241.81,238.19,234.51,230.67,226.85,223.58,219.4,215.95,212.28,208.79,205.13,201.49,197.94,194.26,190.52,187.07,183.21,179.95,176.28,172.96,169.5,165.76,162.14,158.76,155.32,152.21,148.73,145.61,142.38,139.2,136.33,133.43,130.55,127.49,124.68,122.1,119.43,116.7,113.83,111.34,108.77,106.36,103.68,101.55,99.211,96.686,94.758,92.523,90.23,88.17,85.908,83.662,81.654,79.513,77.666,75.344,73.641,72.043,70.901
0.8894,0.9972,1.0696,1.1406,1.211,1.3118,1.3356,1.3556,1.539,1.5188,1.5774,1.5928,1.7068,1.7562,1.869,1.8624,1.907,1.9946,2.0258,2.0712,2.136,2.1172,2.2444,2.2392,2.303,2.4236,2.3614,2.4672,2.4386,2.4198,2.505,2.6764,2.6662,2.6956,2.6634,2.7866,2.9076,3.0054,2.9678,3.0824,3.1052,3.294,3.5008,3.7668,3.9834,4.3814,4.6928,5.3284,5.977,6.9688,8.2118,9.4534,11.531,13.545,15.937,18.868,22.125,25.593,29.124,32.451,36.095,39.877,43.652,47.824,51.079,55.422,60.048,64.426,68.689,72.571,76.76,80.747,85.085,89.329,93.878,97.769,101.85,106.26,110.74,115.44,120.3,125.45,130.72,136.22,141.7,146.92,152.43,157.69,163.26,169.29,175.62,182.08,188.72,195.65,202.2,208.98,215.51,223.33,230.78,236.89,244.32,251.84,259.54,267.49,275.22,283.35,291.67,300.54,309.49,319.03,328.38,336.24,344.92,353.65,362.47,372.38,382.24,392.3,402.82,415.42,425.83,436.86,447.03,455.45,465.73,475.56,485.84,497.58,509.28,521.43,535.14,545.66,556.08,566.09,575.64,583.32,592.67,603.68,615.08,626.88,636.96,647.53,657.68,667.91,678.25,690.73,699.98,707.45,717.16,727.3,737.83,748.91,760.44,772.5,783.63,794.72,805.26,815.23,828.6,832.95,844.62,860.35,873.82,887.97,901.79,913.06,929.95,941.27,951.69,961.09,970.29,976.67,987.61,998.66,1010.4,1024.2,1037.1,1048.6,1058.5,1069,1077.5,1090.3,1097.6,1100.7,1107.3,1115,1123.6,1131.6,1139.6,1147.4,1154.7,1161.7,1170.4,1177.1,1184.3,1187.3,1192.5,1202.8,1208.3,1214.1,1216,1229,1237.8,1247.7,1258.9,1268.4,1278.2,1283,1290.9,1297.4,1305.8,1311.4,1319.3,1328.2,1338.6,1356.7,1373.5,1390,1407.6,1419.2,1433.8,1449.8,1466.1,1480.1,1494.6,1508,1522.3,1535.6,1552.1,1574,1585.2,1601.2,1613.5,1625.2,1638,1646.3,1656.3,1665.1,1673.5,1681.3,1689.4,1695.5,1693.1,1696.7,1700.6,1702.6,1707.4,1711.6,1717.7,1729.3,1734.5,1744.1,1754.8,1765.4,1770,1778.8,1785.2,1789.2,1791.7,1790,1788.9,1787.7,1793.6,1794.8,1798.4,1801.2,1799.9,1806.3,1812.4,1821.6,1830.4,1835.1,1840.7,1841.5,1839.3,1834.2,1836.7,1834,1824.2,1822.7,1823.2,1826.2,1829.8,1832.9,1835.7,1838.7,1842,1846.7,1857.5,1852.8,1854.4,1852.3,1850.6,1849.5,1849.7,1847.8,1846,1844.4,1843.2,1842.9,1844.8,1844.7,1835.6,1835.2,1841.7,1839.7,1836.9,1834.7,1827.1,1833.2,1833.5,1836.6,1838.5,1841,1835.4,1836.3,1835,1832,1830.3,1826.9,1823,1816.2,1817.7,1812.4,1806.2,1801.8,1791,1788.1,1786.1,1787.6,1787.2,1787.6,1788.4,1786.2,1789.8,1787.2,1781.6,1776.1,1760.3,1750.1,1738.8,1732.4,1723.2,1714,1706.1,1698.1,1693,1698.3,1695.3,1694.6,1680.4,1685.4,1683,1683.9,1680.5,1677.1,1672.3,1666.4,1661.2,1654.1,1647.4,1639.5,1624.1,1618.3,1607.6,1592.5,1582.3,1579.4,1564.7,1560.7,1554.9,1548.6,1542.9,1530.3,1532.8,1525.1,1519.7,1514.1,1500,1499.6,1492.6,1484.6,1476.8,1472.6,1465.9,1454.1,1446,1438.6,1429.9,1421.3,1411.1,1400.4,1389.3,1382.3,1372.2,1360.7,1348.7,1333.7,1323.6,1312.8,1303.5,1295.2,1285.4,1277,1268.8,1259.2,1258.7,1252.3,1245,1232.6,1225.7,1218.1,1209.3,1199.5,1190.4,1179.6,1167.4,1155.2,1142,1135.1,1117.6,1102.4,1094,1082.2,1072.2,1062.7,1052.6,1042.2,1034.1,1024.6,1016,1007.3,1000.9,989.52,982.28,975.09,968.26,961.42,954.33,951.59,944.54,935.46,928.01,918.07,908.97,894.35,884.45,873.5,863.85,853.99,844.68,837.31,828.15,824.91,817.74,810.96,799.7,792.54,785.39,777.9,771.08,764.99,757.23,751.12,744.39,738.8,732.97,730.31,722.8,717.61,711.63,705.81,700.69,694.17,688.21,681.9,674.67,667.43,660.57,655.73,646.55,639.9,632.81,625.68,619.71,613.74,606.5,600.13,593.4,587.41,581.5,574.36,568.16,561.85,553.78,549.56,541.51,536.29,532.79,527.56,522.58,517.07,512.09,507.1,502.42,497.1,492.12,486.8,482.79,476.72,471.07,465.36,459.32,452.96,447.02,440.43,434.19,428,421.62,414.76,409.62,403.63,397.12,391.88,385.65,379.58,374.5,369.36,364.38,359.88,354.77,350.32,345.85,341.47,337.76,333.94,329.91,325.91,322.83,318.93,314.84,311.29,307.34,303.58,299.64,295.14,291.46,287.36,282.91,278.63,274.77,269.83,265.41,261.04,256.07,251.91,247.76,243.83,239.99,236.29,232.36,228.23,225.07,220.98,217.58,213.89,210.33,206.36,203.21,199.31,195.79,191.95,188.4,184.7,181.36,177.61,174.22,170.68,166.92,163.36,159.94,156.73,153.21,149.97,146.67,143.45,140.25,137.41,134.3,131.41,128.49,125.61,122.84,120.06,117.49,114.68,112.16,109.53,107.08,104.6,102.23,99.817,97.695,95.438,93.187,91.052,88.767,86.51,84.552,82.268,80.154,78.188,76.053,74.497,72.592,71.378
0.9542,1.0292,1.1532,1.245,1.2658,1.3088,1.3534,1.465,1.4544,1.5372,1.584,1.6746,1.6876,1.8162,1.8518,1.8542,1.9196,1.9826,2.0634,2.0602,2.0434,2.143,2.2132,2.1856,2.3474,2.317,2.2918,2.401,2.4272,2.4246,2.627,2.4926,2.6304,2.7014,2.7652,2.775,2.8608,2.8566,3.028,3.0818,3.173,3.2534,3.5306,3.6868,4.0616,4.3112,4.7538,5.2622,6.0068,6.9226,8.2294,9.5764,11.649,13.711,16.316,19.145,22.47,25.748,29.34,32.846,36.45,40.184,44.132,48.305,51.862,56.237,61.162,65.557,69.764,73.825,78.285,82.346,87.158,91.588,95.765,100.47,104.45,109.23,113.83,118.61,123.94,129.55,135.17,140.51,146.26,151.55,157.29,163.04,168.5,174.6,181.14,187.94,194.98,202.18,208.76,215.77,222.26,230.49,238.25,244.36,252.04,260.33,268.15,275.94,284.42,292.12,300.73,309.84,319.71,329.18,339.15,346.91,355.43,364.37,373.87,383.88,393.64,404.5,414.7,427.43,438.1,449.45,459.75,468.55,478.79,488.84,499.33,511.19,522.97,535.73,549.03,559.87,569.67,579.69,589.11,596.99,606.69,617.47,628.88,639.83,650.71,661.62,671.49,681.24,691.95,704.07,714.17,721.18,730.1,740.75,751.02,762.29,773.29,784.98,796.48,807.75,818.04,828.04,840.14,844.65,855.44,870.77,884.63,898.93,912.4,923.65,940.54,951.63,961.32,972.08,980.95,986.79,997.13,1008.4,1020.1,1034,1046.2,1058.5,1068,1078,1086.9,1099.2,1107,1110,1116.1,1123.5,1133.2,1140.6,1149.4,1157,1164,1170.8,1180,1186.9,1193.5,1196.5,1202.1,1213.1,1218.2,1224.4,1225.5,1238.2,1247.2,1256.2,1268,1277.3,1287.7,1290.9,1299.9,1306.9,1314.6,1320.1,1328.3,1338.1,1346.8,1365.1,1382,1398.5,1415.7,1426.7,1442.4,1458.5,1474.2,1487.8,1502.3,1516.2,1530.3,1543.9,1559.3,1581.8,1592.5,1608.5,1621.3,1633.6,1645.1,1654.3,1663.9,1672.5,1680.6,1688.8,1697.1,1703.2,1700.9,1704.2,1707.6,1709.9,1714.6,1719.1,1724.1,1737.1,1741,1749.7,1760.6,1772.1,1775.8,1784.9,1791.7,1795,1798.5,1796.5,1795.5,1793.5,1799.5,1800.1,1804.7,1806.7,1804.5,1810.7,1818.7,1827,1836,1840.8,1845.8,1846.6,1844.4,1840.9,1842.4,1839.3,1829.1,1827.9,1828,1830.9,1835.7,1838.2,1841.3,1844.4,1846.6,1851.5,1861.8,1857.3,1857.9,1857.3,1855.6,1855.1,1854,1852.6,1851.4,1848.7,1848.6,1848.6,1848.9,1849.6,1840.7,1839.9,1845.5,1844.9,1841.3,1839.6,1831.1,1836.9,1837.2,1840.8,1842.7,1844.1,1838.8,1840.3,1839.3,1836.6,1834.1,1830.7,1826,1820.4,1821,1816.2,1808.5,1804.4,1793.8,1790.6,1788.5,1788.9,1788.9,1789.9,1789.7,1786.8,1790.4,1787.8,1783.2,1776.6,1761.4,1750.2,1739.8,1732.2,1722.6,1715.1,1706.3,1698.7,1693.2,1697.3,1694.3,1693.1,1679.2,1683.7,1681.7,1682,1679.2,1676.5,1671.8,1666.3,1660.7,1653.4,1646.5,1639.1,1622.6,1618.5,1606.9,1591.5,1581,1579.8,1564.1,1561,1553.8,1547.1,1541.5,1528.9,1531.4,1523.6,1519.4,1514.7,1500.6,1499.3,1493.5,1484.7,1477.5,1473.3,1466.5,1454.1,1446.4,1438.4,1430.8,1421.2,1410.7,1400.9,1389.7,1382.8,1373,1361.1,1349.1,1334,1324,1313.9,1304.4,1295.9,1286,1277.5,1269,1260.6,1259.5,1252.8,1245.1,1232.9,1226.2,1218.5,1209.8,1200.5,1190.7,1180,1168.9,1156.1,1143.3,1135.7,1119,1102.9,1095.2,1083.3,1073.8,1063.8,1053.6,1043.3,1034.5,1025,1016.5,1008.2,1001.1,989.87,982.41,975.65,969.18,961.68,954.66,952.6,944.47,936.39,928.77,918.89,910.07,895.32,885.48,874.14,864.38,854.37,845.53,837.67,828.76,824.8,818.03,810.76,800.3,792.9,785.9,778.38,771.3,765.17,757.68,751.23,745.05,738.87,733.08,730.49,722.95,717.24,711.51,706.18,700.51,694.49,688.28,681.97,675.07,668.21,660.86,655.91,647.23,640.56,633.89,626.73,620.16,613.83,607.44,600.34,594.28,587.61,581.94,574.82,568.34,561.86,553.56,549.35,542.3,536.66,533.33,528.09,522.16,518,512.71,507.29,502.99,497.38,492.31,487.12,482.53,476.73,471.55,465.47,459.53,453.28,447.36,441.32,434.4,428.29,421.44,415.09,409.61,403.2,397.51,392.02,386.07,380.56,374.94,369.75,365.23,360.27,355.05,350.95,346.34,342.04,337.9,334.07,330.26,326.16,323.18,319.25,315.17,311.92,307.66,304.11,299.88,295.78,291.85,287.45,283.49,279.31,274.92,270.34,265.98,261.4,256.3,252.16,248.25,243.99,240.16,236.34,232.64,228.43,225.54,221.44,217.83,214.12,210.54,206.82,203.45,199.64,195.97,192.19,188.49,184.89,181.38,177.77,174.43,170.91,167.31,163.94,160.44,156.93,153.33,150.17,146.82,143.98,140.96,137.71,134.77,131.88,128.66,126.01,123.54,120.61,117.95,115.04,112.38,110.21,107.58,105.12,102.8,100.22,97.955,95.736,93.446,91.427,89.374,87.006,84.804,82.701,80.267,78.321,76.345,74.487,72.864,71.582
0.9998,1.0754,1.1604,1.2386,1.2638,1.3186,1.4026,1.4016,1.4486,1.5898,1.6322,1.7042,1.6942,1.8494,1.8616,1.892,1.9352,2.0988,2.1086,2.1198,2.2132,2.1904,2.211,2.3298,2.38,2.2904,2.3944,2.4602,2.501,2.5056,2.5574,2.6404,2.5816,2.726,2.7874,2.8168,2.9352,3.0046,3.0104,3.1762,3.287,3.3612,3.486,3.7376,4.0226,4.3852,4.821,5.3688,6.073,7.0628,8.2868,9.7282,11.7,13.814,16.424,19.263,22.688,26.116,29.505,33.219,36.716,40.722,44.31,48.726,52.002,56.507,61.296,65.456,69.795,73.758,77.849,81.932,86.302,90.671,95.172,99.498,103.37,107.99,112.36,117.11,122.58,127.79,133.28,138.24,143.73,148.88,154.73,160.02,165.87,171.82,178.3,184.87,191.82,198.54,205.1,212.17,218.68,226.46,234.28,240.12,247.9,255.62,263.5,270.95,279.08,286.96,295.87,304.24,313.65,323.41,332.87,341.1,349.6,358.46,367.59,377.66,387.39,398.35,408.58,421.18,431.46,442.95,453.3,461.76,472.23,482.6,492.82,504.61,516.41,529.03,542.64,553.71,563.49,573.37,582.87,590.48,601.1,611.4,622.81,634.54,645.22,655.83,666.47,676.16,686.57,699.43,709.24,716.29,726.04,736.03,747.1,758.64,769.63,781.03,793.16,804.08,814.78,825.1,838.35,842.62,854.56,871.01,884.47,899.16,913,923.92,941.3,952.12,963.17,972.9,982.09,988.58,998.4,1009.1,1021.9,1036.1,1048.6,1060,1069.8,1079.8,1088.3,1101.3,1109.2,1111.6,1118.4,1125.9,1134.7,1143,1151.2,1159,1166.2,1172.7,1181.7,1188.7,1195.8,1198.1,1203.5,1213.6,1219.1,1225.5,1227.2,1240.2,1249.4,1259,1270.2,1280.7,1290.1,1294.2,1302.5,1309.7,1317.1,1322.7,1330.9,1339.8,1350.5,1369.1,1387.1,1403.5,1420.7,1432.5,1447.8,1464,1479.6,1493.7,1508.1,1522.3,1536.1,1550,1567,1589.1,1600.4,1616,1629.6,1641.5,1653.6,1662.7,1671.6,1680.9,1689.1,1696.3,1705.5,1711.7,1709.6,1713,1716.4,1719,1723.7,1727.9,1733.6,1746.4,1750.9,1760.2,1771.3,1782.1,1787.1,1795.7,1801.6,1805.3,1808.9,1806.6,1805,1803.1,1808.8,1811,1814.7,1817.2,1816.7,1822.8,1830.1,1838,1847.2,1852.4,1857.6,1858.3,1854.9,1850.5,1852.9,1849.8,1840.8,1838.4,1838.3,1841.9,1845.9,1849.3,1851.8,1855.4,1858.3,1862.7,1873.4,1868.6,1870,1868.3,1866.4,1866.5,1866,1864.1,1861.7,1859.1,1860,1859.6,1860.3,1861.5,1852.3,1851.5,1857.3,1856.6,1853.6,1851.9,1843.4,1849.4,1849.5,1853.1,1853.8,1856.4,1851.1,1852.2,1851.8,1847.9,1845.7,1842.1,1838.2,1831.3,1834,1828.1,1822.1,1817.2,1806.4,1803.8,1801.3,1802.3,1803.2,1803.6,1804.4,1802.1,1806,1803.3,1798.5,1792.1,1775.8,1765.4,1755.1,1748.2,1738.4,1730.9,1722.2,1714.6,1708.8,1714.8,1711.2,1710.6,1696.2,1701.5,1699.2,1698.5,1696.8,1693.4,1688.6,1682.5,1677.2,1669.4,1663,1655,1639.4,1633.7,1623.1,1607.8,1597.7,1595.3,1581.3,1577.1,1570.4,1564.4,1558.2,1546.3,1547.3,1540.6,1535.2,1529.4,1515.4,1513.7,1507.6,1498.9,1491.7,1487.3,1480.8,1468.8,1460.5,1453.5,1444.6,1435.8,1425.6,1414.5,1403.1,1395.7,1386,1373.8,1362.2,1346.7,1336.8,1326.1,1317,1308.3,1298.4,1289.5,1281.5,1272.6,1271.4,1264.8,1257.7,1244.9,1238.1,1230,1221.1,1212.1,1201.6,1190.9,1178.8,1166.3,1153.3,1146.7,1128,1113.2,1104.5,1093,1083.4,1073.5,1063.4,1052.8,1045,1034.5,1026.6,1017.7,1010.7,999.39,992.47,985.41,978.29,971.45,964.49,961.5,954.41,945.46,937.34,927.75,918.03,903.73,893.54,882.41,872.35,862.5,853.47,845.58,835.96,832.61,825.69,818.84,807.4,800.14,792.9,786.21,778.99,772.49,764.92,758.49,752.35,746.64,740.72,738.09,730.27,724.87,718.81,713.36,707.99,701.33,695.42,688.89,681.58,674.42,666.99,662.32,652.94,646.26,639.14,632.09,625.6,619.47,613.11,606.41,600.01,593.71,587.61,580.75,574.1,568,559.54,555.5,548.45,542.68,539.21,534.17,528.57,524.05,518.36,513.12,508.07,502.99,496.67,492.03,487.85,481.92,476.04,470.39,464.14,457.89,451.7,445.41,439.21,432.4,425.83,419.68,414.2,407.79,401.76,396.2,390.3,384.43,378.63,373.48,368.54,363.76,358.48,354.09,349.97,345.37,341.45,337.47,333.41,329.66,326.15,322.38,318.59,314.77,310.61,306.83,302.85,298.63,294.88,290.61,286.35,282.04,277.76,272.83,268.59,263.67,259.08,254.7,250.43,246.49,242.68,238.78,234.95,230.96,227.49,223.39,219.74,216.55,212.41,208.77,205.66,201.67,197.94,194.17,190.43,186.52,183.59,179.57,176.23,172.58,168.94,165.4,162.06,158.25,154.88,151.52,148.38,145.1,141.77,138.72,135.94,132.99,129.82,127.05,124.1,121.85,118.81,116.13,113.34,111.01,108.21,106,103.3,101.16,98.937,96.733,94.252,91.966,90.109,87.697,85.597,83.244,81.267,78.989,76.887,75.092,73.863,72.438
1.0156,1.0668,1.1212,1.2512,1.3256,1.413,1.3986,1.4336,1.5218,1.5572,1.691,1.7074,1.7206,1.8588,1.9006,1.8992,2.0332,2.0132,2.189,2.1014,2.1608,2.2012,2.2618,2.365,2.3326,2.3898,2.3822,2.4514,2.5064,2.596,2.5638,2.624,2.676,2.7732,2.7504,2.9306,2.9446,2.9936,3.0452,3.2124,3.2428,3.4756,3.618,3.7898,4.0744,4.3844,4.972,5.4614,6.347,7.3158,8.5646,10.083,12.413,14.511,17.283,20.56,23.689,27.46,31.01,34.729,38.378,42.418,46.628,50.941,54.582,59.093,64.081,68.579,72.738,76.64,80.98,85.145,89.753,94.113,98.562,103.13,107.07,111.98,116.59,121.84,127.14,132.63,138.06,143.56,148.94,154.36,160.21,166.21,171.79,178.22,184.95,191.99,199.08,205.83,212.35,219.42,225.85,234.15,242.29,248.41,255.98,264.5,271.93,280.82,288.7,296.92,305.51,315.1,324.88,334.81,344.28,352.16,361.36,370.64,380.25,390.49,400.73,411.86,421.89,434.87,445.75,457.56,467.89,476.64,487.23,497.64,509.11,521.02,533.85,546.92,560.24,571.26,581.08,591.24,601.33,609.28,619.38,630.59,642.16,654.1,665.11,675.95,686.66,697.16,707.42,720.65,730.58,738.12,748.43,758.44,770.12,781.78,793.06,804.77,817.38,828.29,839.93,850.43,863.88,869.44,881.94,898.96,913.76,928.9,943.02,954.1,969.85,981.73,991.23,1001,1010.5,1016.9,1028,1039.2,1051.3,1065.6,1077.9,1090,1100,1109.5,1118.8,1131.2,1138.5,1141.5,1147.5,1155.6,1164.3,1171.8,1179.7,1187.9,1194.6,1201.9,1210,1216.9,1224.2,1226.1,1231.4,1242.2,1247.8,1254.2,1255.9,1270.7,1279.6,1290,1300.3,1311.6,1321.9,1325.9,1333,1340.8,1347.8,1354.9,1363.4,1373.5,1385.8,1404.9,1423.7,1441,1458.6,1470.1,1485.6,1501.4,1517.8,1531.7,1547,1562.4,1575.8,1590.6,1609.2,1632,1643,1658,1671.1,1682.2,1695.3,1703.6,1713.9,1722.7,1731.1,1738.1,1748.2,1753.5,1751.6,1754.2,1757.3,1760.5,1764.9,1770.5,1775.8,1788.7,1795,1805.4,1816.4,1828.4,1832.4,1841.4,1848.3,1849.9,1852.3,1850.1,1848.5,1846.1,1852.5,1854.9,1858.7,1861.1,1861.7,1868.5,1875.8,1884.6,1892.7,1897.8,1902.4,1901.7,1898.4,1894.2,1895.6,1892,1883.7,1880.9,1882,1885.5,1888.7,1893.6,1896.5,1899.4,1901.9,1906.4,1916.3,1911.4,1911.9,1910.1,1908.2,1907.8,1906.7,1904.2,1903.6,1901.4,1901.1,1900.7,1901.9,1902,1893.3,1892,1897.9,1897.1,1894.7,1892.3,1884.3,1890.8,1891.8,1894.4,1894.7,1896.4,1890.9,1892.8,1892.1,1887.4,1885.9,1881.6,1877.8,1870.7,1872.3,1867.1,1861.2,1856.7,1846.7,1843.6,1841.9,1844.5,1844.4,1844,1845.5,1842.7,1846.6,1845.1,1839.7,1832.9,1815.6,1805.4,1795.7,1789,1778.5,1770.8,1763.2,1754.5,1750.5,1756.1,1753.1,1752.2,1737,1743.5,1741.8,1741.4,1739.4,1735,1729.2,1723.5,1717.3,1710.1,1702.7,1693.1,1677,1672.2,1660.8,1646.5,1636,1633.9,1619.2,1615.9,1608.5,1601.8,1596,1584.3,1585,1578.5,1571.1,1564.9,1552.1,1550.6,1543.4,1534.9,1527.9,1523.6,1515.9,1503.8,1495.1,1486.2,1478.4,1468.4,1459.1,1447.3,1435.7,1428.5,1417.6,1405.6,1393.6,1377.4,1366.8,1355.5,1347.3,1337.9,1327.9,1318.6,1309.4,1301.1,1299.5,1291.7,1285.9,1273,1265.6,1256.6,1247.7,1237.7,1226.7,1215.5,1203.1,1190.2,1177,1169.4,1151.4,1135,1127.5,1115.7,1105.9,1097,1086.3,1077,1067.7,1057.4,1048.9,1041.2,1034,1022.9,1014.3,1007.2,999.85,992.75,986.11,982.53,975.48,966.29,958.21,948.24,939.09,924.15,913.37,901.95,891.66,882.39,872.44,863.92,855.29,851.95,844.26,837,825.44,817.98,811.17,803.39,796.1,789.68,782.34,775.73,769.45,763.49,757.67,754.97,746.43,741.65,735.46,729.49,723.54,717.14,711.52,704.2,696.38,689.39,682.15,677.13,667.36,660.73,653.65,645.98,640.25,633.38,626.68,619.9,613.19,607.22,601.24,594.24,587.83,581.86,572.81,568.77,561.23,555.76,551.9,547.5,541.95,537.06,531.59,526.2,521.47,514.94,509.96,504.05,499.5,493.49,487.8,481.96,475.48,468.66,462.56,455.54,449.29,442.64,436.08,429.26,423.49,417.54,411.18,405.79,399.58,393.61,388.27,383,377.21,372.25,367.25,362.44,357.89,353.66,349.91,345.51,341.77,337.64,334.69,330.49,326.36,322.48,318.53,314.63,310.77,306.24,302.18,297.66,293.4,288.9,284.43,279.73,274.93,270.25,265.58,260.89,256.74,252.29,248.07,244.07,240.04,236.17,232.41,228.56,225.2,221.58,217.46,213.98,210.51,206.72,202.9,199.08,195.6,191.76,188.01,184.33,180.86,177.11,173.19,169.87,166.01,162.52,158.89,155.52,152.25,148.85,145.85,142.75,139.51,136.08,133.34,130.25,127.42,124.57,121.83,118.69,116.13,113.49,110.94,108.72,105.85,103.56,101.39,98.951,96.667,94.233,91.863,89.758,87.488,85.427,83.238,81.053,78.994,77.158,75.568,74.336
0.934,1.086,1.1126,1.1634,1.2268,1.3656,1.4022,1.4196,1.4558,1.563,1.6682,1.6468,1.745,1.8484,1.8482,1.958,1.9548,1.977,2.0252,2.192,2.2008,2.1404,2.3784,2.312,2.298,2.384,2.4526,2.4572,2.4772,2.5002,2.619,2.5658,2.6468,2.8046,2.812,2.8574,2.8674,2.9346,3.0816,3.1664,3.1472,3.3814,3.5132,3.7118,3.9324,4.312,4.8364,5.3526,5.9638,6.8434,8.101,9.635,11.486,13.553,15.835,18.759,22.111,25.302,28.726,32.427,35.809,39.475,43.398,47.51,50.696,55.168,60.073,64.119,68.19,71.894,76.161,80.401,84.504,88.851,93.126,97.501,101.65,105.84,110.28,114.94,119.95,124.92,130.53,135.53,141.32,146.31,151.66,157.3,162.99,168.66,175.04,181.56,188.36,195,201.71,208.36,215.15,222.83,230.34,236.46,243.98,251.71,258.92,266.57,274.71,282.55,290.87,299.79,308.96,318.17,327.45,335.57,344.02,352.68,361.62,371.26,380.69,391.64,401.85,414.19,424.42,435.46,445.2,453.76,464.11,474.12,484.53,495.75,507.15,519.88,533.36,543.8,553.47,563.34,572.92,580.61,590.93,600.89,612.16,623.68,634.55,644.78,654.74,664.74,674.57,687.3,696.87,704.08,713.23,723.23,733.93,744.43,755.89,767.89,778.93,790.26,800.52,810.59,823.43,828.3,839.88,855.58,868.55,883.39,896.6,907.35,923.67,934.1,944.68,954.1,963.19,970.06,980.04,991.13,1003.4,1017,1028.5,1040.1,1049.9,1059.6,1068.6,1081,1088.1,1091.7,1098,1106,1114.1,1121.9,1129.9,1138,1144.4,1151.2,1159.5,1166.6,1173.1,1175.9,1180.3,1190.7,1195.7,1202,1203.8,1217.8,1225.9,1235.7,1246.5,1256.4,1266,1269.7,1277.6,1285.2,1292.6,1297.9,1306.5,1315.3,1326,1343.9,1360.7,1377.1,1394.4,1405.3,1421.2,1436.5,1452.3,1465.6,1480.3,1493.5,1508.1,1522,1538.1,1560.5,1571.1,1586.5,1599.3,1610.6,1622.6,1631.9,1641.2,1649.7,1657.4,1666,1674.3,1679,1677.3,1680.8,1683.9,1686.7,1690.8,1696.2,1701.2,1714,1718.9,1728.9,1739,1749.5,1753.8,1763.3,1769.7,1772.6,1774.4,1773.4,1772,1769.4,1776.5,1777.7,1781.5,1783.3,1782.5,1789.4,1795.5,1804.8,1812.6,1818,1822.7,1823.4,1820.9,1815.7,1818.4,1815,1805.6,1804.1,1804.3,1807.6,1810.8,1815.2,1817.4,1820.3,1823.9,1827.6,1838,1833.1,1834.1,1833,1831.1,1830.9,1829.9,1828.6,1826.7,1824.7,1824.6,1824.1,1825.3,1826.1,1818.2,1816.9,1822.2,1820.8,1818.4,1817.1,1808,1814.9,1815.3,1817.9,1818.9,1821.3,1816.1,1816.3,1816.2,1812.6,1810.9,1807,1803.3,1797.3,1799.1,1793.6,1786.9,1782.6,1772.6,1769.5,1767.4,1769,1768.6,1769.6,1770.2,1768,1771.7,1769.4,1764.8,1758.4,1742.4,1732,1722.1,1715.8,1706.5,1698.1,1690.5,1683.2,1677.7,1683.1,1679.1,1679.1,1665.4,1670.7,1668.2,1668.6,1666.1,1662.4,1657.9,1651.6,1647.1,1639.2,1632,1624.1,1608.4,1603.7,1592.6,1578.4,1567.5,1565,1550.1,1547,1539.4,1533.9,1528.4,1516.4,1517.7,1511.4,1505.3,1499.6,1486.1,1485.3,1479.4,1469.7,1463.6,1458.7,1451.9,1440.3,1432.3,1425.4,1415.8,1408.6,1397.2,1386.9,1376.1,1368.6,1358.3,1346.9,1335.6,1320.4,1310.6,1300,1291,1282.7,1273.1,1265.2,1256.4,1247.8,1247.3,1240.1,1233.1,1221.2,1213.7,1206.3,1197.4,1188.5,1178.7,1166.8,1155.8,1143.7,1130.6,1123.6,1106.5,1091.4,1083.4,1071.6,1061.9,1052.7,1041.4,1032.4,1024.3,1013.8,1005.7,997.54,991.31,979.58,972.22,965.6,958.83,952.3,945.22,942.05,934.83,926.73,917.95,908.83,899.5,885.95,875.9,865.31,855.14,845.7,837.06,828.89,820.28,816.88,810.07,802.87,791.73,784.49,777.89,770.77,763.88,758.06,751.04,744.28,737.94,732.28,726.68,723.63,716.25,711.13,705.45,699.11,694.12,688.01,681.9,675.38,668.5,661.2,654.48,649.83,640.49,633.51,627.21,620.43,614.07,607.46,601.44,594.42,588.4,582.09,576.23,569.61,563.16,557.19,548.32,544.44,537.19,531.45,527.61,523.03,517.57,512.64,507.5,502.71,497.61,492.41,487.47,482.33,477.89,472.04,466.92,461.43,454.3,448.57,442.72,435.82,430.02,423.81,417.56,411.19,405.75,399.32,393.18,387.7,381.78,376.06,371.13,365.93,360.91,356.2,351.27,346.9,342.53,338.34,334.34,330.86,326.41,322.83,319.78,315.81,312.04,308.56,304.44,300.84,297.37,292.94,289.16,284.6,280.59,276.36,272,267.57,262.94,258.63,254.08,249.76,245.82,241.34,237.85,233.93,230.3,226.46,223.28,219.17,215.68,212.23,208.42,204.78,201.53,197.56,194.1,190.45,186.81,183.21,179.81,176.23,172.58,169.07,165.35,162.12,158.47,155.14,151.78,148.44,145.38,142.4,139.05,136,133.27,130.22,127.13,124.46,121.72,119.04,116.57,113.77,111.21,108.61,106.12,103.8,101.01,99.015,96.874,94.552,92.483,90.162,87.954,85.881,83.679,81.304,79.307,77.33,75.167,73.587,72.012,70.647
1.0006,0.9822,1.1178,1.2272,1.2394,1.2976,1.3992,1.4672,1.4564,1.5108,1.6572,1.6826,1.6766,1.8224,1.875,1.9064,1.9602,1.9308,2.0984,2.0894,2.1222,2.103,2.197,2.308,2.3068,2.353,2.3542,2.393,2.5068,2.4678,2.4604,2.5822,2.6276,2.6138,2.7958,2.8344,2.8802,2.8726,3.0362,3.0252,3.15,3.2712,3.4854,3.7516,3.9602,4.293,4.7134,5.4642,6.018,7.0252,8.1504,9.6056,11.431,13.82,16.137,19.198,22.354,25.911,29.539,33.037,36.332,40.3,44.13,48.303,51.981,56.008,61.174,65.462,69.621,73.403,77.797,81.825,86.491,90.809,95.158,99.284,103.47,107.9,112.47,117.36,122.49,127.73,132.97,138.3,144.25,149.13,154.83,160.65,166.09,172.06,178.26,185.36,191.98,198.78,205.55,212.68,219.2,226.89,235.04,240.8,248.48,256.49,263.92,271.95,279.69,288.05,296.18,305.21,314.94,324.68,334.05,341.92,350.21,359.28,368.46,378.45,388.55,399.46,409.69,421.74,432.24,443.75,453.79,462.87,472.85,483.18,493.68,505.32,517.07,529.52,543.76,553.88,563.86,573.9,583.55,591.18,601.24,612.07,623.05,634.4,645.51,656.18,666.24,676.88,686.58,699.79,709.15,716.29,726.13,735.82,747,758.2,769.33,781.39,792.35,803.74,814.66,824.77,837.49,842.14,853.49,869.6,883.28,897.99,911.31,922.96,939.4,950.21,960.92,970.75,979.64,986.22,996.76,1007.7,1020.3,1034.1,1046.9,1058.4,1068.3,1078.1,1087.6,1100.2,1107.6,1110.2,1117,1124.4,1133.5,1141.2,1149.5,1157.5,1164.6,1171.5,1180.6,1186.9,1193.9,1196.6,1202.4,1212.5,1218.4,1223.9,1226,1239.8,1248.1,1257.7,1268.9,1279.3,1288.5,1293.1,1301.2,1308.5,1316.2,1321.9,1330.4,1339.6,1349.5,1367.8,1384.8,1401.4,1419.1,1431,1446.1,1462.4,1478.5,1492.2,1506.7,1519.8,1534.9,1547.6,1564.4,1587.4,1598.5,1613.8,1626.7,1638.3,1651.2,1659.9,1669.3,1679.2,1686.3,1694.8,1703.1,1709.2,1706.9,1709.7,1714.1,1716.9,1721.4,1725.1,1731.4,1743.3,1749.4,1758.6,1768.7,1780,1784.1,1793.1,1799.7,1803.1,1806,1804.6,1802.8,1800.6,1807.3,1808.1,1812.6,1814.5,1813.3,1819.7,1827.1,1835.6,1844.3,1849,1854.3,1855.7,1853.2,1848.3,1850.5,1847.9,1837.8,1835.9,1835.9,1839.4,1843.5,1846.9,1849,1852.7,1855.8,1860.1,1870,1866.3,1867.6,1866.1,1863.9,1863.6,1863.1,1861.1,1859.4,1857.7,1856.5,1857.1,1858.1,1858,1850.1,1848.7,1854.8,1853.5,1850.2,1848.5,1840.8,1845.6,1847.3,1849.9,1851.7,1853.3,1848.8,1849.1,1848.2,1845.1,1843,1839.2,1835.1,1829.8,1830.3,1825.1,1818.6,1813.6,1803.3,1800,1798.4,1798.6,1799.2,1800.2,1800.2,1797.1,1801.3,1798.7,1793.5,1788,1772.1,1760.9,1750.5,1743.5,1733.2,1726.2,1717.5,1709.5,1704.1,1709,1705.9,1705.1,1691.1,1695.6,1694,1694.6,1692.1,1688.5,1682.9,1677.3,1672.1,1664.5,1657.4,1649.8,1633.6,1628.4,1617.5,1601.8,1592.2,1589.2,1574.9,1571.6,1564.8,1558.3,1551.9,1539.6,1542.2,1534.5,1529.5,1523.4,1509,1508,1502.1,1493.4,1485.9,1481.4,1475.2,1462.8,1455.3,1447.3,1439.1,1429.7,1419.6,1408.2,1397,1390.5,1380.4,1368.9,1356.9,1342.1,1331.7,1320.8,1311.6,1302.8,1293.4,1284.6,1275.9,1266.8,1266.6,1259.6,1252.2,1240.1,1233,1224.7,1216.2,1207.2,1197,1186.5,1174.1,1161.1,1148.5,1141.6,1123.8,1109,1099.9,1088,1078.2,1068.9,1058.6,1048.3,1040.3,1030.2,1021.5,1013.3,1006.7,995.42,987.67,980.96,973.62,967.09,959.59,956.94,949.46,940.65,933.26,923.51,914,899.48,889.56,878.45,868.09,858.41,849.18,841.26,832.41,829.08,821.87,815.04,803.71,796.61,789.38,782.12,775.04,768.61,761.46,754.95,748.59,742.71,736.96,733.86,726.39,721.24,715.21,708.93,703.45,697.7,691.41,685.3,677.95,671.19,664.04,658.73,649.76,642.97,636.14,629.18,622.6,616.41,609.4,603.29,596.72,590.36,584.49,577.41,570.91,564.4,556.18,552.16,544.68,539.46,535.4,530.72,525.03,520.41,515.07,510.41,505.46,500.01,494.35,489.35,484.82,479.16,473.66,467.92,461.51,455.09,449.71,442.7,436.54,430.11,423.73,417.05,411.98,405.52,399.4,393.8,387.75,381.86,376.57,371.82,366.44,361.73,356.74,351.71,347.76,343.57,339.12,335.6,331.65,327.64,324.27,320.45,316.86,313.21,309.01,305.32,301.19,297.12,292.88,288.67,284.44,280.29,276,271.24,266.8,262.16,257.58,253.26,249.28,244.91,241.35,237,233.47,229.67,226.21,222.01,218.35,215.14,211.25,207.5,204.35,200.44,196.88,193.23,189.37,185.75,182.13,178.54,175.05,171.51,167.78,164.41,160.76,157.4,153.94,150.61,147.44,144.22,140.95,138,135.22,132.03,129.04,126.3,123.46,120.91,117.84,115.08,112.61,110.24,107.84,105.12,102.72,100.42,98.293,95.907,93.705,91.197,89.283,87.122,84.961,82.666,80.503,78.511,76.486,74.594,72.83,71.953
0.9092,1.016,1.1022,1.1854,1.2574,1.2768,1.4168,1.4212,1.4554,1.5356,1.6242,1.7064,1.7046,1.8168,1.8658,1.9298,1.9118,1.9602,2.0446,2.0646,2.0936,2.144,2.1416,2.2334,2.2052,2.2236,2.3638,2.3842,2.3988,2.4482,2.5154,2.5038,2.6118,2.6232,2.7068,2.7778,2.7832,2.9498,3.0154,3.083,3.2304,3.2118,3.4176,3.6028,3.8974,4.1144,4.6262,5.217,5.9164,6.7462,7.896,9.348,11.143,13.079,15.451,18.404,21.423,24.943,28.242,31.65,35.142,38.719,42.498,46.387,49.863,53.638,58.526,62.755,67,70.441,74.712,78.917,83.019,87.283,91.548,95.641,99.77,103.72,108.12,112.86,117.52,122.73,127.91,132.95,138.84,143.68,148.99,154.51,160.06,165.71,172.01,178.13,184.93,191.36,198.05,204.98,211.14,218.9,226.32,232.24,239.92,247.29,254.89,262.74,270,278.12,286.25,294.86,304,313.14,322.45,330.42,339.25,347.43,356.29,365.73,375.05,385.28,395.79,407.94,418.57,429.8,439.26,447.53,457.71,467.69,478.28,489.37,500.72,512.95,525.93,536.79,546.59,557.18,566.17,573.63,583.59,594.23,605.33,616.8,627.16,638.16,647.57,657.5,667.79,680.26,689.84,696.82,706.37,716.14,727.26,738.18,748.42,760.61,772.08,783.15,794.05,803.97,816.68,820.98,832.33,848,861.58,875.29,889.04,899.59,916.79,927.76,937.51,947.61,956.98,962.89,973.7,985.01,996.67,1010.1,1023.1,1034.7,1044.4,1053.9,1063.8,1075.4,1083.7,1086.5,1093,1100.4,1109.3,1117.5,1125.6,1133.5,1140.2,1147.1,1155.8,1162.4,1169.2,1172.3,1177.2,1187.3,1193.2,1199.4,1201.1,1214.2,1223,1232.1,1243.3,1253,1262.6,1266.9,1275.2,1282.8,1289.9,1295.4,1303.3,1312.7,1321.9,1340.2,1357,1373.2,1390.4,1401.6,1416.6,1432.5,1448.3,1462.2,1476.1,1489.4,1503.3,1517.3,1533.5,1555,1565.6,1581.2,1594.3,1606.3,1618.2,1627.3,1636.2,1645.2,1653.7,1661.8,1670.2,1676.1,1673.5,1676.9,1679.9,1683.3,1687.8,1691.3,1697.3,1709.2,1714.9,1723.7,1734.2,1745.7,1749.7,1758.6,1764.7,1768.2,1770.8,1770.6,1768.7,1766.5,1772.5,1773.9,1778.2,1779.9,1779.3,1785.4,1792.5,1801,1809.3,1814.4,1819.5,1820.6,1817.8,1813.7,1816.3,1813.4,1803.1,1802.5,1802.1,1805.3,1809,1813,1815.2,1818.5,1821.5,1826.5,1837,1831.6,1833,1832.2,1831,1830.1,1829.6,1828,1825.4,1824.4,1823.6,1823.1,1824.9,1825,1816,1815.7,1821.1,1820.1,1817.2,1815,1807.1,1813.3,1813.8,1816.6,1818.7,1820.1,1815.6,1816.8,1816.1,1813,1810.2,1808.1,1803,1797.3,1798.2,1793.1,1787,1782.4,1772.5,1768.8,1767.3,1767.8,1768.7,1768.9,1768.9,1767.2,1770.1,1768.3,1763,1757.5,1741.9,1731.2,1720.6,1713.3,1704.3,1696.6,1688.2,1680.4,1675.1,1680.5,1677,1676,1662.1,1667,1665,1665.6,1662.8,1659.4,1655.2,1648.8,1644,1636.9,1629.8,1622.4,1606.3,1601.4,1590.4,1575.1,1564.8,1562.6,1548.3,1544.5,1538.2,1531.6,1525.9,1514.3,1516,1509.5,1503.4,1498,1485.1,1483.7,1477,1468.8,1462.9,1457.9,1451.4,1438.3,1430.7,1423.9,1415.1,1407,1396.6,1385.9,1374.5,1367.2,1357.7,1346,1334.5,1319.8,1310.3,1299.5,1290.1,1281.9,1272.6,1264,1255.8,1246.8,1246.2,1239.4,1232.7,1220.6,1213.8,1205.8,1197.1,1187.7,1178.4,1168,1156.1,1143.6,1131.1,1124,1107.3,1091.4,1083.4,1071.3,1062,1052.4,1041.8,1031.6,1023.5,1013.4,1005.4,997,990.32,979.81,972.46,965.29,958.31,951.77,944.52,941.15,935.2,926.06,918.18,908.58,899.69,885.1,875.78,864.96,855.26,845.55,836.81,828.6,819.63,816.38,809.58,802.9,791.4,784.19,777.2,770.25,762.93,757.15,750.32,743.98,737.65,731.44,726.04,722.47,715.49,710.17,704.73,698.98,693.62,687.49,681.44,675.11,668,660.81,654.07,649.72,640.18,633.35,626.59,619.61,613.09,607.34,600.51,594.19,587.82,581.17,575.65,569.05,562.53,556.68,547.97,544.2,536.41,530.76,527.1,521.86,516.93,512.14,506.76,501.64,496.99,492.05,486.79,481.93,477.77,471.48,466.43,460.52,454.16,448.28,442.15,435.77,429.45,423.51,417.5,411,405.37,399.19,392.95,387.27,381.43,375.72,371.05,365.66,360.85,356.23,351.44,346.52,342.54,338.27,334.38,330.45,326.61,322.26,319.59,315.63,311.74,308.26,304.31,300.76,296.85,292.46,288.86,284.58,280.72,276.2,272.08,267.36,262.82,258.22,253.78,249.6,245.6,241.41,237.76,234.04,230.34,226.38,223.04,219.13,215.41,211.83,208.09,204.69,201.24,197.57,193.84,190.26,186.39,182.76,179.57,176.15,172.53,169.08,165.51,162,158.69,155.33,151.76,148.18,145.34,142.13,138.97,136.1,133.12,130.09,127.12,124.41,121.52,119.07,116.32,113.56,110.98,108.75,106.17,103.75,101.21,99.1,96.746,94.454,92.559,90.245,88.054,85.526,83.721,81.531,79.519,77.423,75.322,73.699,71.894,71.033
0.9166,1.0622,1.1238,1.154,1.215,1.3276,1.4458,1.417,1.4264,1.6506,1.5666,1.738,1.7506,1.725,1.8614,1.956,1.975,2.0312,2.1438,2.1378,2.1402,2.1468,2.2716,2.314,2.2962,2.358,2.4904,2.4422,2.5194,2.488,2.5712,2.4874,2.6472,2.6612,2.7994,2.8834,2.9034,3.066,3.0492,3.102,3.2364,3.3696,3.5756,3.7992,3.9776,4.3772,4.911,5.4396,6.1824,7.1398,8.3834,9.6698,11.998,13.902,16.514,19.653,22.964,26.234,29.882,33.643,37.086,41.02,44.646,49.049,52.71,57.087,62.168,66.51,70.924,75.215,79.388,83.432,87.916,92.667,97.062,101.59,105.69,110.15,114.73,119.96,125.21,130.91,136.37,142,147.59,152.79,158.44,164.42,169.87,175.94,182.84,189.52,196.6,203.46,210.29,217.33,223.72,232.01,239.72,245.99,253.55,262.1,269.58,277.76,286.12,294.06,302.61,311.59,321.49,331.47,341.07,348.53,357.29,366.52,375.99,385.54,396.44,407.06,417.15,429.79,440.45,451.8,462.28,471.03,481.95,491.64,502.06,513.99,525.72,538.52,552.18,562.66,572.5,582.35,592.05,599.6,609.64,620.81,631.84,642.95,654.04,664.71,674.78,685.07,695.25,707.76,717.49,724.65,734.08,744.21,754.86,766.34,777.27,788.6,800.31,811.33,821.51,831.73,844.02,848.59,859.76,875.6,888.87,903.33,916.99,927.82,944.86,956.26,966.71,976.43,985.1,990.95,1001.4,1012.8,1024.7,1038.7,1051.3,1062.4,1072.9,1082.6,1091.6,1104,1111.6,1114.5,1120.6,1128.5,1137.8,1145.7,1153.3,1161.5,1169,1175.8,1184.6,1191.8,1198.8,1201,1206.8,1217.3,1222.7,1229.2,1230.3,1244,1252.1,1261.5,1272.2,1282.5,1292.1,1296.8,1304.9,1311.8,1319.6,1325.1,1333.2,1342.5,1352.1,1370.7,1387.5,1404,1421.2,1433.1,1448.2,1464.2,1480.6,1493.9,1508.1,1522.2,1535.9,1549.2,1565.3,1588.2,1599.4,1615,1627.4,1639.6,1651.3,1661.2,1670.3,1679.7,1687.4,1695.5,1703.1,1709.4,1707.2,1710.4,1713.2,1716.7,1721.2,1724.5,1730.6,1743.3,1747.5,1756.7,1766.7,1778.4,1782.2,1791.7,1798.5,1801.3,1805,1803.5,1802.2,1800.1,1805.7,1807.4,1810.6,1813.9,1812.2,1818.6,1825.3,1834.8,1842.5,1847.7,1852.6,1854.3,1851.8,1846.7,1849.1,1846.2,1835.9,1835.3,1834.3,1837.5,1842.2,1844.6,1848.1,1850.8,1853.4,1858.5,1868.9,1864.4,1865.5,1863.9,1862.9,1862.5,1861.5,1859.3,1857.6,1855.3,1855.1,1854.6,1855.8,1856.4,1846.7,1846.9,1851.9,1850.7,1847.7,1845.9,1837.5,1844,1844,1847.3,1848.6,1850.8,1844.9,1846.4,1845.9,1842.5,1839.9,1837.3,1832,1826.4,1827.6,1822.1,1815.6,1810.6,1800.3,1796.8,1794.8,1795.2,1795.5,1795.6,1795.9,1793.1,1796.7,1793.7,1787.6,1782.6,1766.9,1756,1746.1,1737.9,1728.3,1720.2,1711.5,1704,1698.8,1703.3,1700.7,1698.9,1685.2,1690.2,1688.6,1688.1,1685.7,1682.9,1678.2,1671.9,1666.6,1659.2,1652.3,1645.2,1628.7,1623.6,1612.7,1597.9,1587.5,1584.7,1569.6,1566,1559.6,1553,1547,1534.3,1536.7,1529.5,1524.9,1519.3,1505.4,1504.4,1497.7,1489.9,1482.3,1478.6,1471.1,1459,1451.4,1443,1435.5,1427,1416.2,1405.4,1394.1,1387.2,1377.5,1365.2,1353.3,1337.6,1328.1,1317.8,1309.1,1300.4,1290.7,1281.7,1273.8,1264.5,1263.4,1256.3,1249.1,1237.4,1230.4,1223.1,1213.5,1204.2,1194.8,1184,1172.9,1160,1147.8,1139.4,1122.1,1107,1098.5,1087,1077.4,1067.2,1056.9,1047.2,1038.5,1028.5,1020.2,1011.4,1004.7,993.6,986.92,979.26,972.52,964.95,958.23,955.28,948.04,939.7,931.85,921.73,912.9,898.07,888.82,877.3,866.94,857.45,848.43,840.35,831.65,827.83,820.78,813.88,802.73,795.17,788.03,780.96,774.03,767.3,760.43,753.97,747.6,741.89,736.03,732.78,725.01,720.11,713.78,708.45,702.87,696.68,690.97,684.08,677.39,670.12,662.89,658.28,648.83,642.19,635.53,628.81,622.25,616.09,609.09,602.46,596.01,589.63,583.53,576.72,570.67,564.1,555.76,551.82,544.22,538.51,535,530.2,524.43,519.84,514.65,509.48,504.43,499.14,494.14,488.7,484.48,478.58,473.07,467.45,460.96,454.96,448.79,442.58,436.35,429.77,423.31,417.02,411.1,404.96,398.87,393.49,387.21,381.95,376.42,371.12,366.22,361.34,356.51,351.99,347.21,343.35,339.21,335.66,331.51,327.39,324.21,320.24,316.43,312.78,308.53,304.78,301.13,296.65,292.82,288.73,284.44,280.5,276.03,271.19,267.03,262.11,257.47,253.1,249.06,244.44,240.81,237.09,233.43,229.51,226.23,221.82,218.53,215.08,211.16,207.43,203.92,200.49,196.33,192.99,189.33,185.51,182.17,178.8,174.82,171.51,168.09,164.27,160.77,157.69,154.23,150.52,147.32,144.29,141.44,138.1,135.28,132.1,129.32,126.66,123.56,120.76,118.2,115.33,112.76,110.27,107.69,105.42,102.93,100.47,98.366,95.922,93.577,91.469,89.376,87.229,84.937,82.918,80.749,78.541,76.702,74.682,73.256,71.839
0.9276,1.0816,1.1448,1.2482,1.2792,1.3268,1.3976,1.4308,1.5094,1.535,1.5886,1.7172,1.7322,1.8242,1.8818,1.8812,1.9104,2.0786,1.986,2.0884,2.1736,2.173,2.203,2.3512,2.2976,2.3544,2.405,2.5044,2.5618,2.469,2.509,2.5478,2.712,2.7234,2.7534,2.8756,2.8522,2.9662,3.0218,3.1534,3.2514,3.3502,3.5246,3.8074,4.0352,4.3256,4.7412,5.3502,5.9668,6.9834,8.2466,9.619,11.442,13.692,16.249,19.016,22.328,25.87,29.047,32.742,36.317,39.941,43.667,48.068,51.49,55.8,60.423,64.69,69.002,72.63,77.037,81.269,85.574,89.974,94.321,98.117,102.34,106.71,111.1,115.94,120.82,126.29,131.32,136.86,142.2,147.36,152.74,158.4,163.85,169.64,176.26,182.93,189.81,196.15,202.87,210.07,216.41,223.87,231.7,237.79,244.84,252.72,260.49,267.87,276.11,284.09,292.68,301.55,310.54,320.12,329.6,337.33,345.82,354.62,363.53,373.17,383.22,393.68,404.38,417.15,427.23,438.52,448.6,456.76,467.08,477.2,487.82,499.26,510.7,522.89,536.76,547.63,557.61,567.73,577.18,584.56,594.55,605.43,616.81,628.05,638.74,648.89,659.45,669.38,679.64,692.51,701.5,709.48,718.62,728.18,739.65,751.22,762.08,773.67,785.2,796.64,806.92,816.96,829.79,835.19,846.03,862.03,875.58,889.9,903.73,914.75,931.67,942.48,952.73,962.71,972.3,977.97,988.67,999.87,1011.8,1025.9,1037.4,1049.3,1059.1,1069.5,1078.1,1090.6,1098.1,1101,1107.2,1115.3,1123.7,1131.5,1140,1147.9,1154.9,1162.1,1170.4,1176.8,1183.9,1187.1,1191.7,1201.8,1207.6,1213.2,1214.9,1228.7,1237.6,1246.6,1257.3,1267.8,1277,1281.6,1290.4,1297.4,1304.5,1310.2,1318.3,1327.8,1338.2,1356.3,1373.8,1389.5,1406.8,1418.6,1433.4,1449.4,1464.7,1479.4,1493.8,1507.3,1520.9,1534.8,1550.9,1574.4,1584.6,1600.3,1612.6,1625.5,1637.1,1645.7,1655.5,1664.4,1673,1680,1689.4,1694.5,1692,1695.8,1698.6,1702.3,1706.3,1711.1,1716.8,1729.2,1734.1,1743.5,1753.7,1764.8,1769.4,1777.8,1784.4,1787.5,1790.8,1788.8,1787.5,1785,1791.9,1793,1797.7,1799,1798.2,1804.5,1811.6,1820.6,1828.4,1834.1,1838.8,1840.3,1837.5,1833.3,1834.6,1832.1,1822,1820.8,1820.3,1823.4,1828.5,1831.8,1834,1837.4,1840.5,1844.9,1855,1851,1852.1,1850.4,1849.3,1848.1,1847.7,1846.1,1844.1,1841.8,1842,1841.5,1842.4,1842.6,1834.6,1833.3,1839.7,1837.9,1835.2,1833.2,1825.5,1830.9,1832.5,1835.1,1836.8,1838.7,1833.6,1834.3,1833.9,1830.6,1827.9,1824.2,1820.3,1814.2,1816.1,1810.7,1804.3,1799.6,1789.5,1786.5,1784.6,1785.3,1785.7,1786,1786.5,1784.3,1788.4,1786.4,1780.3,1775.5,1759.8,1748.9,1738.2,1732,1721.8,1714.1,1705.8,1698.6,1693.3,1698.7,1694.5,1693.1,1679.9,1685.1,1683.2,1683.2,1680.6,1677.4,1673,1666.9,1660.8,1654.2,1647.5,1639.3,1623.9,1618.6,1607.5,1592.1,1582.3,1580.3,1566.1,1562.7,1555.3,1548.7,1543.4,1531.4,1533.3,1526.5,1520.6,1514.8,1501.1,1499.7,1493.5,1484.7,1478.4,1473.3,1467.5,1454.5,1447.2,1440.2,1431.2,1422.6,1412.2,1401.4,1390.3,1382.8,1372.6,1360.7,1349.3,1334.5,1324.5,1313.8,1304,1296,1286.3,1278.1,1269.4,1260.4,1259.7,1253.2,1245.7,1233.2,1226.9,1218.4,1210.7,1200.8,1190.6,1179.8,1168.4,1155.7,1143.2,1136.1,1118.5,1103.3,1094.8,1083.2,1073.4,1064.2,1053.3,1043.7,1035.5,1025.4,1016.5,1007.7,1001.4,990.47,983.39,976.08,969.82,962.54,955.62,952.64,945.61,936.37,928.21,919,909.68,895.21,885.16,874.48,864.85,854.89,845.51,837.78,828.87,825.34,818.51,811.76,799.56,793.2,786.06,779.04,771.63,766.05,758.71,752.37,746.08,739.88,734.43,731.23,723.88,718.72,712.69,706.98,701.42,695.27,689.46,683.18,675.75,668.86,661.42,656.91,647.19,640.86,633.78,627.26,620.43,614.37,607.64,601.29,594.77,588.22,582.48,575.78,569,562.72,554.57,550.58,543.22,537.74,533.94,529.02,523.33,518.73,513.59,508.19,503.77,497.97,492.75,488.02,483.31,477.45,472.16,466.33,460.15,453.88,448.1,441.33,435.05,428.87,422.04,415.77,410.35,404.41,398.16,392.4,386.7,380.38,375.44,370.29,365.3,360.37,355.57,350.66,346.45,342.32,338.47,334.44,330.41,326.73,323.39,319.52,315.42,311.83,307.88,304.19,300.41,296.13,292.28,287.81,283.73,279.56,275.18,270.48,266.09,261.51,256.83,252.4,248.48,244.26,240.52,236.85,232.96,228.97,225.87,221.76,218.12,214.52,210.99,207.02,203.74,199.97,196.52,192.58,189.12,185.34,181.92,178.2,174.55,171.11,167.59,163.93,160.56,156.88,153.69,150.37,147.02,143.88,140.99,137.67,135.04,131.66,128.9,126.09,123.14,120.25,117.88,114.92,112.43,109.87,107.57,104.74,102.64,100.15,97.924,95.82,93.659,91.447,89.243,86.648,84.574,82.561,80.597,78.266,76.355,74.471,73.14,71.771
0.9592,1.0476,1.2168,1.1868,1.2924,1.3542,1.3582,1.4234,1.4782,1.6358,1.6388,1.7014,1.7072,1.798,1.9206,1.8892,1.9514,2.031,2.0816,2.144,2.125,2.2022,2.196,2.2962,2.1954,2.36,2.3476,2.4106,2.5204,2.5332,2.5732,2.5924,2.6272,2.73,2.7268,2.8306,2.9002,2.9576,2.965,2.9414,3.0506,3.2734,3.3964,3.4206,3.5142,3.5554,3.824,4.1652,4.423,4.8038,5.1472,5.7852,6.3146,7.079,7.611,8.534,9.461,10.658,11.846,13.34,14.658,16.557,17.995,20.045,21.966,24.264,26.293,28.668,30.912,33.288,35.732,38.257,41.374,44.513,47.94,51.284,54.873,59.009,63.422,68.015,72.745,77.836,82.803,87.744,93.005,98.162,103.83,109.47,114.86,120.73,127.57,134.23,141,147.57,153.97,161.24,168.09,176.38,184.61,190.83,198.47,207.29,215.08,222.61,230.5,237.93,246.4,254.72,263.45,272.48,280.9,288.03,295.93,304.24,311.92,320.9,329.13,338.21,347.03,357.88,366.84,376.8,385.87,393.33,402.4,410.85,420.88,431.23,441.05,452.49,464.42,473.75,483.34,492.39,501.36,509.23,518.38,528.44,539.56,550,560.12,569.24,578.74,587.66,596.72,607.79,615.94,622.46,630.4,639.13,648.66,658.19,667.81,678.17,688.7,698.62,708.88,717.52,729.41,734.21,745.12,759.6,772.46,786.22,798.7,808.79,824.61,835.41,845.13,854.96,864.66,871.88,882.83,894.35,907.16,921.82,934.72,947.83,958.66,969.92,979.28,992.56,1001.6,1006.4,1013.8,1022.7,1032.6,1042,1051.6,1060.4,1068.4,1077.5,1087.1,1094.9,1104.1,1108.1,1113.2,1124.8,1131.9,1138.9,1142.7,1157,1166.7,1177.7,1189.8,1200.7,1211.9,1217.1,1225.6,1234.1,1242.6,1250,1258.7,1269.4,1280.8,1299.5,1317.3,1333.8,1351.1,1363.9,1379.3,1395.7,1412.7,1426.5,1441.8,1456.4,1469.9,1485.2,1502.3,1525,1537,1553,1566.4,1578.2,1591.8,1601.1,1611.4,1621,1629.8,1637.8,1646.8,1653.1,1652.9,1656.3,1660.3,1663.7,1668.9,1674.5,1680.5,1693.7,1699.7,1709.7,1719.9,1732.3,1737.5,1746.6,1753.2,1756.5,1760.1,1759,1759.1,1757.2,1763.7,1765.7,1770.2,1773.2,1773.2,1779.9,1787.1,1796,1804.7,1810.6,1816,1816.5,1814.3,1810.3,1813.2,1810.4,1801.8,1800.3,1800.5,1804,1807.9,1812.6,1815.7,1818,1821.8,1826.8,1837.9,1832.8,1833.8,1832.4,1831.6,1831.2,1832,1829.3,1828.5,1826.2,1826.2,1826.9,1827.6,1829.2,1820.3,1819.6,1826.1,1825.2,1823.2,1821.7,1813.1,1819.2,1820.8,1823.3,1824.4,1826.6,1821.8,1822.9,1822.6,1819,1816.8,1813.4,1809.1,1803.4,1805.7,1800.3,1794,1790,1779.4,1776,1774.1,1775.8,1776.7,1777,1777.7,1776.1,1779.1,1776.7,1772.2,1766.4,1750.1,1740,1729.3,1723.2,1714.2,1706.9,1698.4,1690.9,1686.3,1691.6,1688.1,1687.4,1674.2,1679,1677.8,1677.3,1675.2,1670.9,1666.6,1661,1655.8,1648.2,1641.4,1632.6,1617.5,1612.4,1601.6,1586.2,1575.8,1573.7,1559.4,1555.8,1549.2,1542.8,1536.8,1525,1526.4,1519.1,1513.3,1507.2,1493.6,1493,1486.5,1477.7,1470.8,1466.4,1459.6,1447.4,1439.4,1431.9,1423.3,1415.1,1404,1393.3,1382.3,1374.9,1365.2,1353.4,1342.1,1327.1,1316.5,1306.3,1297.2,1288.5,1278.8,1269.9,1261.5,1252.7,1252.5,1245.5,1239.2,1226,1218.8,1211.3,1202.7,1193.7,1183.2,1172.1,1160.7,1147.6,1135.5,1128.1,1111,1096,1086.8,1075.7,1065.9,1056.5,1045.4,1035.8,1027.6,1017.5,1009.7,1001.1,994.64,983.4,975.8,968.69,961.74,955.35,948.25,945.84,938.05,929.43,921.25,911.83,902.67,888.71,878.66,867.27,858.2,848.46,839.4,831.21,823.06,818.71,812.2,805.25,794.27,787.16,780.04,773.07,766.42,759.7,752.77,746.73,739.93,734.3,729.1,725.8,718.32,713.05,706.82,700.93,695.9,690.07,683.51,677.61,669.87,663.06,656.1,651.12,641.68,635.44,628.63,621.6,615.81,608.7,602.2,595.99,589.56,583.44,577.4,570.98,564.67,557.83,549.72,545.71,538.21,532.57,529.08,523.5,518.16,513.53,508.37,503.18,498.23,493.23,488.08,483.04,478.81,472.62,467.3,461.97,455.08,448.88,442.95,436.66,430.59,424.62,417.61,411.76,405.84,399.57,393.56,388.05,382.38,376.58,371.6,365.98,361.41,357.04,351.75,347.09,342.75,338.22,334.73,330.66,326.73,322.95,319.56,315.92,311.87,308.4,304.53,300.42,296.88,292.8,288.89,284.7,280.59,276.03,272.15,267.41,263.06,258.25,253.97,249.54,245.51,241.68,238.09,234.15,230.14,226.55,223.16,219.32,215.51,212.39,208.72,205.1,201.31,197.62,194.06,190.45,186.99,183.36,179.75,176.28,172.77,169.49,165.66,162.44,158.74,155.37,151.93,148.82,145.37,142.47,139.1,136.32,133.38,130.15,127.12,124.3,121.63,119.08,116.38,113.66,111.03,108.46,106.12,103.46,101.22,98.981,96.679,94.252,92.158,90.042,87.859,85.575,83.346,81.333,79.193,77.339,75.392,73.548,71.994,70.568
0.9998,1.0578,1.1234,1.2494,1.2506,1.2868,1.3688,1.4104,1.5098,1.6292,1.558,1.6722,1.761,1.7844,1.8824,1.8984,1.9682,2.0626,2.0642,2.139,2.2144,2.2186,2.2112,2.26,2.2492,2.3408,2.4032,2.4182,2.5388,2.4776,2.606,2.5702,2.648,2.8004,2.8494,2.8134,2.9002,3.0292,2.9878,3.0236,3.1216,3.1782,3.3126,3.5268,3.5168,3.6514,3.8172,4.1774,4.649,4.8402,5.2724,5.7894,6.5324,7.1958,8.046,8.899,10.087,11.416,12.676,14.368,15.9,17.678,19.588,21.629,23.655,25.827,28.121,30.618,32.78,35.189,37.908,40.633,43.756,46.867,50.715,54.292,57.901,61.959,66.459,71.023,75.901,81.043,85.847,91.035,96.209,101.57,107.25,113.37,118.87,125.1,132.16,139.06,145.77,153.02,159.6,166.86,173.89,182.47,190.99,197.12,205.77,214.76,222.48,230.56,238.44,246.4,254.91,263.81,273.26,282.45,291.14,298.52,307.09,315.6,323.95,333,341.48,350.56,359.92,371.05,380.56,390.98,400.29,408.57,417.74,426.72,436.89,447.53,458.01,469.7,482.19,492.01,501.82,511.4,520.91,529.33,538.93,549.65,560.28,571.37,581.6,591.52,601.13,610.32,619.54,631.15,639.65,645.99,654.58,663.76,673.29,683.68,693.61,704.82,715.57,725.29,736.12,745.34,757.68,762.75,774.47,789.11,802.87,816.38,830.25,841.07,856.23,868.09,877.87,888.64,898.26,906.86,918.26,930.63,943.84,959.04,972.14,985.23,995.57,1006,1016.5,1029.5,1038.3,1043.4,1051.4,1060.9,1070.7,1080.2,1089.9,1099.1,1106.9,1115.9,1125.1,1133.9,1141.8,1146.2,1152.6,1164.3,1171.6,1178.7,1182.5,1197.6,1208.6,1219.8,1232.1,1243.5,1255.1,1261.1,1270.1,1278.8,1287,1294.1,1304,1315.1,1326.8,1346.9,1365.4,1383.5,1401.8,1414.1,1430.8,1447.6,1464.5,1479.4,1495.3,1509.9,1524.4,1539.9,1558.2,1581.5,1592.5,1609.6,1623.4,1635.5,1649,1658.2,1669.4,1679,1687.8,1696.9,1705.7,1712.3,1710.3,1715,1718.3,1722,1728.2,1733.7,1739,1752.7,1760.1,1770.2,1780.9,1794.9,1798.9,1808.1,1815.2,1818,1822.2,1819.7,1818.9,1816.8,1824.2,1826.3,1831.2,1834.7,1834.9,1842.5,1850.4,1858.7,1868.2,1873.6,1878.8,1878.7,1876,1871.6,1874.4,1870.8,1862.2,1861.2,1861.5,1865.2,1869.7,1874.4,1877.1,1879.4,1883.6,1887.6,1898.3,1893.7,1895.4,1893.9,1892.3,1892.1,1891.2,1889.3,1887.9,1886.8,1886.8,1887.1,1888.2,1888.1,1880,1878.5,1885,1884.5,1882.1,1880.8,1872,1879.9,1879.9,1882.4,1883.4,1886.1,1879.3,1881.5,1881.1,1877.2,1875.6,1870.9,1866.9,1860.9,1863.8,1857.7,1851.6,1847.3,1836.6,1834,1831.8,1834.5,1834.5,1834.9,1836.3,1833.6,1837.9,1835,1829.4,1823.1,1807.4,1796.7,1786.5,1779.8,1769.7,1761.4,1753.6,1747.2,1741.8,1747.7,1743.8,1743.5,1729.1,1734.9,1732.7,1732.6,1730.4,1726.3,1721.4,1715.4,1709.5,1702.2,1694.4,1685.4,1668.7,1664,1652.6,1638.1,1627,1625,1610.6,1607.2,1599.9,1593.6,1587.3,1575.9,1575.9,1570.1,1562.1,1556.5,1542.1,1541.1,1534.4,1525,1518.4,1513.8,1506.9,1493.8,1486.1,1477.8,1468.5,1459.6,1449.6,1437.5,1426.4,1420.1,1408.2,1396.9,1384.5,1368.7,1357.7,1347,1337.4,1329.1,1319.5,1310.2,1301.6,1292.8,1291.1,1283.8,1277.2,1263.6,1256,1248.1,1239.3,1229.1,1218.6,1207.1,1195.3,1181.7,1168.4,1160.7,1143.8,1127.3,1120.1,1107.5,1098.2,1088.7,1077.6,1068.3,1059.7,1049.5,1041,1032.2,1025.7,1013.8,1005.7,999.18,992.17,985.22,977.85,974.74,967.4,958.23,949.92,940.72,930.49,916.32,905.83,894.62,883.92,874.19,864.79,856.54,847.53,844.48,836.67,829.49,817.81,810.81,803.67,796.29,788.62,782.7,775.55,769.06,762.35,756.4,750.91,748.26,739.88,734.78,729.09,722.29,716.84,710.37,704.28,697.3,690.26,682.98,675.63,671.09,661.07,654.06,647.28,639.55,633.75,626.83,620.98,613.63,607.63,601.27,595.18,588.56,581.56,575.22,566.41,562.34,554.51,549.63,545.58,541.04,535.52,530.47,525.74,519.98,515.02,508.87,503.86,497.87,493.27,487.81,482.07,476.16,469.48,463.05,456.73,449.6,443.61,437.32,430.18,423.94,418.22,412.06,405.66,400.02,394.16,387.91,382.83,377.42,371.99,367.61,362.26,357.5,353.07,348.89,344.84,341.15,336.82,333.05,329.85,325.87,321.77,318.34,313.76,309.94,305.95,302.01,297.87,293.38,289.4,284.86,280.27,275.71,271.15,266.13,261.54,257.31,252.84,248.53,244.82,240.76,236.82,233.19,229.24,225.76,222.08,218.46,214.86,211.06,207.93,203.78,199.9,196.31,192.81,188.86,185.42,181.72,178.01,174.81,170.88,167.51,163.76,160.01,156.54,153.03,149.73,146.73,143.52,140.52,137.49,134.02,131.06,128.42,125.31,122.82,120.01,116.94,114.34,111.59,109.5,106.82,104.1,102.15,99.326,97.215,95.045,92.864,90.549,88.38,86.331,83.963,81.545,79.575,77.893,75.965,74.337,72.875
1.0194,1.0842,1.1134,1.1938,1.26,1.3738,1.3996,1.4764,1.4252,1.602,1.6512,1.6872,1.729,1.7876,1.882,1.9374,1.9492,2.0126,2.0634,2.1242,2.1496,2.2348,2.271,2.2548,2.3314,2.3144,2.3728,2.435,2.5148,2.5538,2.528,2.563,2.6522,2.735,2.7472,2.797,2.9128,2.9574,3.0098,3.0614,3.0652,3.1936,3.3198,3.4378,3.5248,3.7694,3.8594,4.1022,4.4592,4.9154,5.2126,5.7554,6.5102,7.159,7.9784,9.0586,10.008,11.209,12.577,14.179,15.749,17.544,19.526,21.447,23.543,25.957,28.016,30.247,32.721,35.103,37.55,40.347,43.602,46.946,50.439,54.391,57.774,62.137,66.564,71.271,76.094,80.797,86.117,91.183,96.523,101.55,107.37,113.31,118.93,124.74,131.6,138.29,145.36,152.47,158.93,166.16,172.81,181.6,189.91,196.21,204.22,213.42,221.05,228.83,236.29,244.22,252.68,261.46,270.3,279.07,287.89,295.02,303.37,311.48,319.7,328.71,337.14,346.43,355.33,366,375.63,386.12,395.09,402.88,412.11,420.89,430.8,441.28,451.9,463.08,475.31,484.95,494.28,503.68,512.61,520.85,530.67,540.76,551.75,562.83,572.12,582.03,591.17,600.32,609.86,620.72,629.44,635.69,644.29,652.87,662.49,672.05,681.89,692.87,703,713.36,723.16,732.37,744.71,749.46,760.97,775.85,788.33,801.83,814.96,825.45,841.33,852.63,862.75,872.59,882.69,889.79,901.77,913.37,926.73,941.66,954.7,967.51,978.64,989.34,999.08,1012.7,1021.3,1026.2,1033.8,1043.4,1053.5,1063.2,1072.6,1081.9,1090,1098.8,1108.5,1116.5,1124.8,1129,1134.9,1146.4,1153.6,1161.1,1165,1179.6,1189.7,1200.2,1212,1223.6,1234.8,1240,1249.3,1258.1,1266.8,1273.8,1283.1,1293.5,1305,1324.5,1342.6,1359.4,1377,1389.9,1405.2,1422.3,1439.7,1454,1469.5,1483.8,1498.1,1514.2,1531.6,1554.3,1565.8,1582.1,1595.8,1607.2,1620.5,1630.5,1641.1,1649.8,1658.9,1668.2,1677.3,1683.3,1682.2,1686.2,1690.5,1694.1,1699.5,1704.8,1710.8,1724.2,1730.5,1740.5,1751.5,1763.8,1768.4,1778.2,1785,1788.8,1792.3,1790.2,1790.4,1788.7,1795.5,1798.2,1801.7,1805,1804.9,1812.2,1819.9,1828.6,1837.9,1843.4,1848.2,1849.9,1847.1,1843.2,1845.9,1842.4,1833.6,1832,1833,1836.8,1840.2,1845.1,1847.4,1850.5,1854.4,1859.7,1870.5,1865.1,1866.3,1866.2,1864.6,1865.2,1864.1,1862.3,1861.3,1859,1858.5,1859.6,1860.5,1862.2,1853.4,1852.3,1859.1,1857.7,1855.1,1853.6,1845.1,1852,1853.4,1855.5,1857.2,1859.7,1853.7,1855.3,1854.8,1850.9,1848.8,1846.5,1842,1834.7,1838,1831.7,1825.5,1820.9,1810.7,1808.1,1806.3,1808.1,1808,1808.3,1809,1807.5,1810.9,1808.2,1803.2,1798,1781.2,1770.6,1760.5,1754.4,1744.7,1737.1,1729.6,1721.2,1716.6,1722.3,1718.4,1717.7,1703.2,1709.2,1706.8,1707.2,1705.1,1700.9,1696.5,1690.6,1683.9,1676.7,1669.8,1661.3,1645.1,1640,1629,1614.6,1603.8,1601.3,1586.6,1583.4,1576.4,1570.2,1564.2,1552.3,1552.7,1545.8,1540,1533.4,1520.3,1518.6,1512.1,1504,1496.9,1491.3,1484.3,1472.2,1464.3,1456.7,1447.7,1438.9,1428.8,1417.3,1406.1,1399.1,1388.4,1376.5,1364.5,1349.6,1338.4,1328.3,1318.6,1310,1300.8,1292,1283.2,1274.4,1272.9,1265.9,1259.4,1246.5,1239.4,1230.7,1222.8,1213.1,1202.9,1190.8,1179.4,1166.8,1154.1,1146.7,1129,1114,1105.3,1093.7,1084.1,1074,1063.6,1053.8,1045.3,1035,1026.8,1017.8,1011.2,999.6,992.37,985.27,978.44,971.15,964.48,961.4,954.19,944.98,936.99,927.05,918.35,903.54,893.54,881.8,872.06,862.24,853.49,844.92,836.77,832.36,825.77,818.87,807.4,799.93,792.85,785.6,778.65,771.94,764.92,758.64,752.06,745.85,740,737.65,729.62,724.19,718.77,712.95,707.66,700.94,694.9,688.58,681.11,673.96,666.87,662.11,652.48,645.65,638.95,631.48,625.46,618.87,612.23,605.78,599.15,592.85,586.98,580.38,573.55,567.13,558.55,554.81,547.22,541.78,538.06,533.32,527.74,522.81,517.36,512.36,507.3,502.13,496.54,491.38,486.63,480.78,475.16,469.98,462.87,456.89,450.63,443.87,437.44,431.3,424.89,418.49,412.26,406.46,400.34,395.14,388.91,382.69,377.67,372.22,367.07,362.53,357.32,352.71,348.57,343.95,340.05,336.23,332.33,328.35,324.9,321.09,317.01,313.5,309.63,305.79,301.91,297.27,293.4,289.09,284.77,280.62,276.5,271.73,267.05,262.69,257.74,253.33,249.63,245.29,241.6,237.84,233.96,230.22,226.82,222.57,218.91,215.29,211.72,207.89,204.7,200.99,197.26,193.65,189.85,186.08,182.7,179.18,175.16,171.98,168.29,164.66,161.37,157.66,154.29,150.66,147.49,144.52,141.62,138.22,135.19,132.38,129.23,126.43,123.34,120.98,118.38,115.3,112.68,110.28,107.78,105.35,102.88,100.58,98.048,95.822,93.581,91.197,89.332,86.881,84.757,82.818,80.467,78.662,76.218,74.819,73.078,71.803
0.9248,1.0582,1.1474,1.1294,1.247,1.3304,1.3444,1.396,1.4414,1.5456,1.6362,1.6702,1.6552,1.8716,1.857,1.8572,1.9636,1.9464,2.0334,2.0834,2.2072,2.0964,2.2042,2.2216,2.2526,2.3262,2.3878,2.4222,2.35,2.4318,2.5428,2.5282,2.6486,2.6418,2.6946,2.8422,2.7674,2.9612,2.8988,2.9816,3.0592,3.2006,3.261,3.3254,3.5538,3.607,3.887,4.0646,4.3556,4.7942,5.2312,5.6906,6.4304,7.0668,7.9644,8.9354,9.7762,11.028,12.343,13.807,15.463,17.238,19.09,20.902,23.016,25.415,27.652,30.091,32.152,34.777,37.243,39.851,43.173,46.399,49.879,53.496,57.111,61.211,65.499,70.391,75.114,80.133,85.284,90.238,95.608,100.69,106.41,112.14,117.61,123.43,130.09,136.85,143.92,150.66,157.28,164.56,171.15,179.82,187.51,194.01,201.89,210.55,218.27,226.01,234.09,241.55,250.22,258.59,267.48,276.1,284.96,292.19,300.26,308.49,316.66,324.98,333.77,342.67,351.89,362.9,372.03,381.95,391.38,398.92,407.98,417.09,426.82,437.04,447.69,458.67,470.87,480.66,489.68,499.22,508.52,516.19,526,536.18,546.69,557.69,567.25,577.1,586.64,595.57,604.82,616.05,624.72,630.93,639.27,648,657.82,667.62,677.79,687.86,698.03,708.33,718.06,727.14,739.54,743.82,754.71,769.63,782.46,796.07,809.19,819.48,835.33,846.46,856.13,867.11,876.31,883.8,894.51,906.6,919.64,934.57,947.27,960.01,970.55,982.28,992.3,1005.2,1014.3,1019.4,1027.3,1036.5,1046.3,1055.5,1065.2,1074.4,1083.1,1091.9,1102,1110.3,1118.1,1122.7,1129.6,1141,1148,1155.7,1159.3,1173.6,1183.7,1194.1,1206.9,1217.7,1228.5,1234.7,1243.5,1251.9,1260.7,1267.4,1276.9,1287.4,1298.7,1317.5,1335.3,1351.9,1369.6,1382,1398.2,1414.7,1431.4,1446,1461.5,1475.9,1490.6,1504.9,1521.8,1545.1,1557.1,1573.2,1586.9,1598.9,1611.4,1622.1,1631.1,1641.1,1649.8,1658.5,1668,1674.3,1673.2,1677.2,1681.1,1684.1,1688.9,1695,1701.2,1714.3,1719.9,1730.2,1741.2,1752.7,1757.2,1767,1774.2,1778.4,1781.4,1780.3,1779.6,1778.6,1785.4,1786.5,1791.3,1794,1793.5,1801.3,1807.6,1817.8,1826,1831.2,1836.7,1838,1836.3,1832.7,1834.4,1831.7,1822.1,1820.6,1821.8,1825.2,1829.3,1833.2,1836.1,1839.4,1842.4,1848.2,1859,1853.9,1855.8,1854.5,1853.5,1853.1,1853,1852.2,1849.9,1848.2,1847.7,1848,1849.4,1850.7,1841.4,1841.2,1847,1846.4,1843.7,1842,1833.7,1839.3,1840.4,1843.6,1845.2,1847.3,1842.8,1843.9,1843,1840,1838.5,1834,1829.9,1824,1825.2,1819.9,1813,1809,1798.7,1795.4,1793.4,1795.2,1795.2,1796.2,1796.3,1794.1,1797.7,1796,1790,1785,1769.2,1758.5,1747.9,1740.5,1731.5,1723.6,1714.6,1708,1701.9,1707.8,1703.5,1703.7,1689.2,1694.6,1692.6,1693.2,1690.1,1686.7,1681.8,1676.3,1670.7,1662.7,1655.8,1647.9,1631.9,1627.2,1615.4,1600.6,1590.2,1587.8,1573.4,1569.7,1563.3,1556.6,1550.6,1539,1540.4,1533.5,1527.5,1521.3,1508.2,1506.7,1500.2,1491,1484.3,1479.6,1473.3,1460.7,1453.4,1445.7,1436.5,1427.9,1417.8,1406.5,1395.4,1387.2,1377.9,1365.9,1354.2,1339.2,1329.1,1318.2,1309,1300.2,1290.6,1282.4,1273.5,1264.5,1263.1,1256.4,1249.7,1237.2,1230.4,1222,1213.7,1203.8,1194.6,1183.1,1171,1158.2,1145.4,1138.6,1120.5,1106.1,1097.2,1085.4,1075.4,1065.9,1055.5,1045.8,1036.9,1027.1,1018.7,1009.9,1003.7,992.41,984.63,977.18,971.01,964.03,956.8,953.75,946.88,937.64,929.88,920,910.89,896.71,886.4,875.96,865.25,855.81,846.21,838.62,830.01,825.76,818.94,812.28,800.62,794.27,787.27,779.86,772.82,766.5,758.84,752.58,746.26,740.3,734.75,731.96,723.9,719.18,713.15,707.11,701.6,695.89,689.76,683.27,675.96,668.47,661.74,656.82,647.43,641.16,634.36,627.09,620.45,614.28,607.53,600.85,594.19,588.55,581.94,575.82,568.99,562.15,553.95,550.05,542.38,537,533.37,528.35,522.48,517.94,512.63,507.69,502.55,497.4,492.14,486.79,482.24,476.81,471.33,465.64,458.75,452.76,446.98,440.06,434.05,427.52,421.09,414.61,408.97,402.99,396.62,391.19,385.24,379.14,374.18,369.21,364.03,359.4,354.07,349.59,345.14,340.75,336.81,333.21,329.01,325.41,321.84,317.98,314.67,310.62,306.76,302.72,298.99,294.69,290.95,286.61,282.27,277.97,273.9,269.6,264.86,260.45,255.77,251.55,247.32,243.24,239.6,235.75,232.03,227.96,225.11,220.85,217.15,213.67,209.99,206.37,202.87,199.1,195.55,191.62,188.2,184.74,181.39,177.31,174.08,170.26,166.74,163.27,159.78,156.32,152.95,149.84,146.39,143.28,140.3,136.98,134.07,130.98,128.31,125.15,122.44,119.7,117.16,114.35,111.64,109.3,106.88,104.47,102.07,99.725,97.318,95.273,92.877,90.605,88.608,86.253,84.03,81.949,79.917,77.819,75.875,73.97,72.42,71.033
