1.0067,1.1169,1.1672,1.1919,1.2623,1.36,1.4335,1.4983,1.5436,1.5708,1.6395,1.6945,1.8046,1.8036,1.8655,1.8904,1.9222,1.9949,2.0442,2.031,2.0697,2.221,2.2849,2.2901,2.3411,2.41,2.4724,2.5217,2.6183,2.6253,2.6709,2.7649,2.8001,2.8697,2.8962,2.9966,2.9991,3.072,3.2009,3.2708,3.3919,3.5177,3.7037,3.8546,4.247,4.5335,4.9426,5.563,6.3668,7.3259,8.6379,10.047,11.999,14.18,16.922,20.046,23.433,26.938,30.605,34.215,37.898,41.793,45.956,50.22,53.776,58.28,63.134,67.306,71.67,75.488,79.875,84.034,88.217,92.655,96.929,101.2,105.27,109.63,114.29,119.37,124.39,129.57,134.99,140.01,145.73,151.1,156.71,162.44,168.12,174.3,180.73,187.44,194.11,200.7,207.53,214.29,220.74,228.77,236.41,242.17,249.65,257.13,264.52,272.3,280.29,288.55,297.15,306.04,315.36,324.53,333.66,341.32,349.79,358.34,367.97,377.82,387.9,398.49,408.82,421.08,431.46,442.08,452.15,460.57,470.81,480.78,491.62,503.46,515.86,528.31,541.83,552.21,561.9,571.57,581.3,589.44,600.51,611.55,623.13,634.7,644.97,655.44,665.91,675.96,686.14,699.2,709.15,716.51,726.79,737.32,748.88,760.59,771.7,783.92,795.09,805.46,815.72,825.99,839.7,844.95,857.29,874.39,888.44,902.67,916.03,926.29,941.55,951.36,960.47,969.38,978.21,985.25,996.27,1007.3,1019.4,1032.7,1043.3,1053.5,1062.4,1070.7,1079.4,1091.1,1098.6,1100.4,1106.9,1113.9,1121.9,1129.3,1136.3,1143.9,1151.1,1158.1,1165.5,1173,1180.5,1181.6,1186.9,1196.9,1202.7,1208.2,1211.6,1224.9,1234.9,1245.6,1256.1,1266.8,1276,1280.3,1287.2,1293.6,1300.8,1307.2,1316.9,1328.5,1341,1361.6,1379.9,1397.2,1415.2,1426.4,1440.8,1456.1,1470.5,1484.7,1499.1,1512.4,1527,1542.7,1560.4,1583.8,1593.4,1608.5,1619.3,1629.4,1640.5,1649.9,1658.5,1668.4,1675.9,1683.4,1690.8,1695.5,1694,1697.6,1700,1703.4,1707.4,1711.6,1718.3,1730.1,1737.2,1747.9,1759.8,1771.4,1775.7,1783.2,1786.9,1788.4,1789.4,1787.1,1784.4,1783,1788.9,1791.7,1796.8,1801,1801.1,1807.9,1816.1,1824.7,1831.4,1836.8,1839.1,1838.6,1832.4,1828,1829.4,1824.5,1816.2,1815.5,1816.5,1821,1826.2,1830.2,1833.1,1835.7,1837.6,1841.1,1849.9,1844.7,1844.9,1842.5,1839.8,1838.8,1836.7,1835.9,1834.3,1831.2,1830.4,1832.8,1833.4,1833.2,1826.2,1824.1,1830.4,1828.7,1826.2,1824.4,1816.4,1822.2,1824.5,1825.7,1827.1,1828,1822.6,1822.7,1821.6,1818,1815.5,1811.4,1808.4,1803.1,1804.4,1799.4,1793.8,1790.9,1781,1779.6,1779.1,1781.8,1781.9,1781.3,1782.4,1779.8,1783.9,1780.5,1776,1768.8,1753.1,1743.6,1734.1,1727.4,1719,1711.3,1704.7,1698.4,1694,1699.6,1698.1,1697.9,1684.7,1688.9,1687.7,1687.5,1684.7,1680.9,1675.5,1668.2,1661,1656.3,1647.5,1638.3,1623.1,1617.7,1606.8,1591.4,1581.8,1580.8,1566.5,1564.6,1557.2,1551.6,1546,1534.4,1534.4,1527.3,1521.1,1515.3,1501.5,1500.2,1493,1485,1478.3,1473.3,1465.6,1453.3,1445.3,1436.8,1427,1418.2,1407.8,1397.1,1385.5,1378.6,1367.4,1355.1,1343.5,1328.6,1317.6,1307.6,1298,1288.8,1278.5,1271.6,1261.4,1253.7,1251.8,1245.5,1238.1,1225.7,1218.1,1209.7,1200,1189.9,1179.6,1168.2,1156.6,1143.5,1131.8,1124.2,1107.1,1092,1084.2,1073,1063.9,1054.2,1044.1,1034.8,1025.5,1016.6,1008.2,1001.2,994.27,983.49,975.77,968.69,962.26,956.02,948.11,944.83,937.65,929.33,920.61,910.83,901.03,886.45,876.42,866.54,856.36,846.96,838.13,831.05,822.67,819.25,811.82,805.21,794.24,787.64,780.44,773.33,766.25,760.12,753.66,747.49,741.11,735.31,730.33,727.07,720.13,714.95,708.83,703.25,698,692.22,685.94,679.29,671.83,664.9,658.34,653.59,644.56,637.87,631.33,624.32,618.04,611.75,605.71,599.37,593.21,586.84,580.66,574.49,568.17,562.58,554.27,550.21,543.59,537.54,534.16,529.24,523.8,519.11,514.37,509.22,504.64,499.42,494.35,488.97,484.13,478.65,472.88,467.05,461.03,454.15,448.43,441.72,435.22,429.2,422.71,416.69,410.86,404.54,399.08,393.53,387.59,381.85,376.86,371.52,366.39,361.74,356.91,352.37,348.08,343.92,340.16,336.32,332.38,328.79,325.27,321.54,318.02,314.51,309.99,306.4,302.56,298.39,294.32,289.96,285.63,281.28,277.13,272.33,267.69,262.9,258.37,253.96,249.75,245.63,241.78,237.88,233.85,230.08,226.53,222.72,219.31,215.79,212.19,208.54,205.07,201.38,197.94,194.28,190.46,186.86,183.34,180.05,176.65,173.08,169.47,166.05,162.47,159.04,155.71,152.3,149.04,145.67,142.63,139.39,136.49,133.48,130.5,127.51,124.73,122,119.25,116.48,113.93,111.29,108.94,106.37,103.96,101.8,99.327,97.206,94.986,92.924,90.582,88.448,86.243,84.151,81.991,79.872,77.844,76.216,74.75,73.549
1.0402,1.117,1.1814,1.2745,1.3226,1.3903,1.4819,1.5009,1.6216,1.6734,1.6947,1.714,1.7853,1.8391,1.8793,1.9066,1.9744,2.0547,2.0384,2.0709,2.1901,2.2104,2.2933,2.3764,2.4162,2.5218,2.5092,2.5783,2.6049,2.6724,2.7203,2.8074,2.8731,2.8895,2.9693,2.9391,3.0856,3.152,3.2092,3.3219,3.4092,3.547,3.7167,3.9108,4.227,4.5515,4.951,5.6112,6.3822,7.3396,8.6518,10.021,11.907,14.032,16.681,19.738,23.044,26.525,30.23,33.684,37.34,41.289,45.395,49.62,53.156,57.535,62.265,66.634,70.8,74.811,79.206,83.448,87.748,92.171,96.443,100.73,104.83,109.21,113.88,118.75,123.97,129.27,134.47,139.69,145.42,150.64,156.27,162.14,167.8,173.98,180.43,187.11,193.92,200.55,207.12,213.9,220.32,228.6,236.06,241.91,249.36,257.03,264.35,272.06,280.16,288.22,296.78,305.68,314.97,324.36,333.39,340.98,349.31,358.28,367.39,377.65,387.72,398.44,408.76,421.02,431.35,441.91,451.97,460.45,470.53,480.72,491.61,503.23,515.84,528.41,542.04,552.18,561.84,571.62,581.37,589.66,600.56,611.77,623.43,635,645.44,655.95,666.5,676.59,686.88,699.58,709.86,717.39,727.67,738.29,750.1,762.02,773.36,785.25,796.64,807.26,817.61,828.19,842.19,847.41,860.1,877.27,891.51,906.16,919.99,930.1,945.35,955.33,964.52,973.8,982.64,989.95,1000.8,1012.1,1024,1037.7,1048.8,1059.4,1067.8,1076.5,1085.2,1096.9,1104.7,1105.7,1112.4,1119.7,1127.7,1135.2,1142.3,1150,1157.1,1164,1171.6,1179.2,1186.4,1187.8,1192.9,1203.3,1208.9,1214.4,1217.8,1231.7,1241.6,1252.1,1262.9,1273.5,1282.7,1287,1293.8,1300.6,1307.4,1314.3,1323.8,1335.9,1348.1,1368.9,1387.1,1404.4,1422.7,1433.7,1449.1,1464,1478.6,1492.6,1506.8,1521,1535,1550.7,1569.2,1592.5,1602.4,1616.5,1627.5,1638.2,1649.1,1658.6,1667,1677.3,1684.9,1692.3,1699.8,1704.3,1703.5,1705.7,1709,1711.9,1716.3,1720.7,1726.9,1738.8,1746.3,1757.2,1768.7,1780.6,1784.7,1792.4,1796,1797.7,1798.6,1796.2,1793.8,1792.5,1798.3,1800.8,1806.1,1810.5,1810.2,1817.7,1825.3,1834.1,1841,1846.5,1848.9,1847.9,1842.2,1837.2,1839,1833.8,1825.9,1825.8,1826.4,1831.4,1836,1840.2,1843,1845.7,1847.4,1851.1,1859.9,1854.5,1854.8,1852.3,1849.8,1848.9,1846.8,1846.1,1844.3,1841.5,1840.5,1843.1,1843.4,1843.6,1835.8,1834.1,1840.2,1839.2,1836.4,1834.5,1826.5,1832.2,1834.4,1835.8,1837.6,1837.7,1832.6,1832.4,1831.3,1828.1,1825.5,1821,1818.1,1812.9,1814.3,1809.2,1804,1800.9,1791.3,1789.5,1789.3,1792,1792,1792,1792.8,1790.2,1794.4,1790.8,1786,1779.1,1763.7,1753.7,1744.6,1737.4,1729.2,1721.3,1714.4,1708,1703.6,1709.8,1708.2,1707.5,1694.4,1699.1,1697.7,1697.8,1694.6,1690.5,1685.2,1677.9,1670.8,1666.2,1657,1647.9,1632.7,1627.6,1616.4,1601.3,1591.2,1590.5,1576.7,1574.7,1567.3,1561.2,1555.2,1543.8,1543.6,1536.6,1530.1,1524.3,1510.5,1509.3,1502,1494.4,1487.2,1482.1,1474.6,1462.6,1454.4,1445.6,1435.7,1426.6,1416.6,1405.6,1394.1,1387,1376,1363.9,1351.5,1336.8,1325.4,1315.3,1306.1,1296.8,1286.3,1279.7,1269.7,1261.9,1259.8,1253.7,1246.5,1233.5,1225.8,1217.3,1207.3,1197.1,1186.9,1175.5,1163.4,1150.5,1139,1131.1,1114.2,1098.9,1090.8,1080.3,1070.9,1060.7,1051,1041.6,1032.3,1023.6,1014.8,1007.8,1001.1,989.91,982.26,974.99,968.51,961.79,954.57,951.03,943.68,935.33,926.74,916.77,907.47,892.48,881.94,871.8,861.84,852.45,843.58,836.16,828.18,824.33,817.03,810.06,799.47,792.69,785.14,778.22,770.92,765.41,758.44,752.36,745.81,740.13,734.96,731.65,724.6,719.21,713.27,707.79,702.25,696.61,690.27,683.61,676.2,669.33,662.72,657.89,648.73,641.71,635.05,628.14,622.09,615.42,609.21,602.75,596.68,590.66,584.49,578.2,571.64,566,557.84,553.51,546.76,540.74,537.27,532.66,527.26,522.53,517.85,512.68,507.89,502.31,497.46,491.7,487.02,481.57,475.68,469.87,463.71,456.95,451.13,444.02,437.83,431.56,425.22,419.16,413.19,407.06,401.38,395.51,389.7,384.15,379.08,373.86,368.35,363.62,358.75,354.17,349.97,345.88,341.99,338.08,334.31,330.63,326.98,323.42,319.67,316.04,311.75,308.26,304.32,299.72,295.77,291.52,287.05,282.87,278.4,273.69,269.07,264.29,259.56,255.24,250.96,246.73,243.08,239.09,235.22,231.33,227.62,223.98,220.37,217.09,213.11,209.77,206.01,202.53,198.98,195.2,191.61,188.01,184.49,181.01,177.41,173.88,170.46,166.78,163.26,159.82,156.45,153.09,149.71,146.55,143.31,140.11,137.06,134.03,131.17,128.3,125.37,122.47,119.73,117.04,114.29,111.85,109.42,106.84,104.57,102.23,99.836,97.606,95.456,93.252,90.898,88.804,86.671,84.536,82.433,80.275,78.398,76.706,74.982,73.676
1.0151,1.1088,1.1752,1.2291,1.2863,1.3694,1.402,1.4972,1.5313,1.5941,1.6529,1.6983,1.7647,1.8522,1.8432,1.9112,1.9249,1.9818,2.0433,2.1012,2.1297,2.1718,2.28,2.3838,2.4118,2.4124,2.4632,2.5251,2.6003,2.687,2.6675,2.7693,2.8172,2.8626,2.9061,3.0053,2.9881,3.1515,3.1413,3.345,3.3523,3.5481,3.6984,3.8933,4.2094,4.4611,4.91,5.5253,6.2702,7.1727,8.4358,9.7509,11.586,13.862,16.509,19.447,22.607,26.075,29.546,33.218,36.794,40.608,44.62,48.836,52.388,56.645,61.316,65.55,69.827,73.539,77.931,82.186,86.447,90.759,94.898,99.102,103.3,107.45,112.17,116.9,121.94,127.11,132.52,137.5,143.29,148.41,153.89,159.51,165.37,171.3,177.7,184.2,190.82,197.32,203.85,210.84,217.27,225.11,232.6,238.65,245.86,253.1,260.36,268.16,275.99,284.15,292.49,301.2,310.54,319.27,328.63,336.11,344.52,353.05,362.21,371.97,381.89,392.73,402.94,415.13,425.54,436.02,445.83,454.14,464.17,474.31,485.17,496.78,509.05,521.42,534.84,544.95,554.67,564.17,574.03,581.92,593.02,604.36,616.43,627.57,638.42,648.46,659.06,668.54,678.98,691.78,701.97,709.64,719.85,730.27,742.09,754.1,765.53,777.46,788.52,799.01,809.21,820.03,833.92,838.81,851.78,868.82,882.91,897.38,910.99,920.85,936.03,946.4,955.65,964.76,973.99,980.76,991.84,1003.2,1014.6,1028.4,1039.2,1049.5,1058.2,1066.6,1075.1,1087.1,1094.4,1096.4,1102.7,1109.8,1118.1,1125.2,1132.3,1140.2,1147.1,1154,1161.8,1169.2,1176.4,1177.7,1182.5,1192.9,1198.2,1204.3,1207.4,1221,1231.1,1241.7,1252.4,1263,1272.2,1276.6,1283,1289.5,1296.8,1303.5,1313.4,1324.6,1336.8,1357.7,1376.3,1393.2,1411.2,1422.2,1437.3,1452.1,1466.3,1480.4,1495,1508.8,1522.8,1538.5,1556.4,1580,1589.7,1603.9,1615,1625.4,1636.2,1645.6,1654.1,1664.4,1672,1678.8,1686.4,1691.1,1689.3,1692.7,1695.8,1699,1702.9,1707.4,1714.2,1725.5,1733,1743.6,1755.1,1767.5,1771.8,1778.7,1782.3,1783.9,1784.5,1781.9,1780,1778.6,1784.9,1787.6,1792.7,1797.1,1797.2,1804.2,1811.8,1820.8,1827.3,1832.6,1835.4,1834.1,1828.2,1823.2,1825.4,1820,1811.7,1811.6,1812.7,1817.4,1822.3,1826.2,1829.4,1831.5,1834,1836.9,1846,1840.4,1841.3,1838.7,1836.1,1835.2,1832.3,1832,1830.2,1827.4,1827,1829.1,1830.1,1829.8,1822.4,1820.5,1826.7,1825.1,1822.9,1820.8,1813.2,1819.3,1820.7,1822.4,1823.8,1825,1819,1818.7,1817.7,1814.9,1811.8,1807.6,1805.2,1799.9,1801.2,1796.6,1790.9,1787.5,1778.2,1777.1,1776.8,1779.2,1779.4,1779.9,1780.4,1777.8,1781.8,1778.2,1773.9,1766.9,1751.5,1741.4,1732,1725.1,1717,1709.8,1702.9,1696.3,1691.7,1698.4,1696.7,1695.9,1683.4,1687.7,1686.3,1686.4,1683.6,1679.1,1673.9,1666.8,1659.8,1655.3,1646,1637,1621.7,1617,1605.5,1590,1580.8,1579.9,1565.8,1563.8,1556.6,1551.1,1545,1533.5,1533.3,1525.9,1520.1,1513.9,1500.6,1499.4,1491.7,1484.7,1477.5,1472.4,1464.4,1452.3,1444.1,1435.6,1425.8,1417,1406.6,1395.5,1384.4,1377.4,1366.4,1354.2,1342.1,1327.4,1316.1,1305.9,1297,1287.8,1277.6,1271.1,1261.1,1253.3,1251.1,1244.9,1237.3,1224.9,1217.5,1209.1,1199.1,1188.9,1178.8,1167.1,1155.7,1142.9,1130.9,1123.6,1106.3,1091.3,1083.5,1072.6,1063.4,1053.6,1043.8,1034.5,1025.3,1016.3,1007.8,1000.8,994,983.33,975.8,968.65,962.05,955.59,948.18,944.99,937.5,929.11,920.34,910.66,901.04,886.41,876.03,866.18,856.25,846.52,838.08,830.43,822.53,819.15,811.53,804.91,794.58,787.52,780.23,773.22,766.24,760.67,753.55,747.64,741.54,735.27,730.47,726.8,720.13,715.01,709.21,703.12,697.85,692.27,686.03,679.34,672.05,665.18,658.77,653.77,644.67,637.82,631.02,624.45,618.42,611.73,605.37,598.79,592.99,586.6,580.7,574.35,568.12,562.2,554.21,550.02,543.37,537.69,534.23,529.02,523.85,519.15,514.48,509.48,504.2,499.2,494.07,488.87,483.87,478.42,472.77,467.04,460.83,454.05,448.23,441.54,435.11,428.66,422.51,416.19,410.58,404.61,398.82,393.17,387.57,381.7,376.71,371.21,366.03,361.34,356.32,352.05,347.67,343.64,339.87,335.81,332.22,328.4,325.05,321.53,317.68,314.09,309.72,306.21,302.32,297.97,293.97,289.73,285.16,281.17,276.73,271.94,267.44,262.76,257.92,253.7,249.41,245.48,241.55,237.69,233.71,230,226.44,222.64,219.27,215.59,211.99,208.45,204.71,201.28,197.81,194.02,190.23,186.82,183.31,179.67,176.29,172.83,169.35,165.93,162.43,158.92,155.49,152.04,148.8,145.61,142.55,139.29,136.27,133.26,130.14,127.31,124.68,121.7,119.03,116.3,113.9,111.04,108.71,106.3,103.78,101.64,99.132,97.076,94.888,92.713,90.462,88.224,86.158,84.037,81.807,79.853,77.893,76.17,74.608,73.458
1.055,1.0791,1.1567,1.2184,1.3006,1.3478,1.4128,1.4522,1.5201,1.6502,1.659,1.7424,1.8016,1.8353,1.9001,1.9199,1.9341,1.9733,1.9897,2.0677,2.171,2.2266,2.2669,2.2839,2.3587,2.4517,2.4644,2.5313,2.6191,2.6244,2.7073,2.769,2.8191,2.943,2.9283,2.9525,2.9893,3.0941,3.1452,3.2585,3.4048,3.4856,3.6531,3.8501,4.203,4.4713,4.9647,5.6081,6.3237,7.2216,8.4926,9.8221,11.747,13.948,16.626,19.594,22.911,26.375,29.979,33.485,37.072,40.974,45.033,49.338,52.802,57.279,61.906,66.234,70.332,74.202,78.478,82.799,86.937,91.403,95.574,99.947,103.97,108.29,112.89,117.82,122.8,128.23,133.35,138.64,144.06,149.39,154.94,160.71,166.42,172.54,179.01,185.27,192.1,198.65,205.14,212.17,218.36,226.45,234.06,239.89,247.14,254.67,261.88,269.7,277.9,285.83,294.33,303.1,312.35,321.55,330.66,338.21,346.69,355.08,364.57,374.13,384.17,395.14,405.25,417.29,427.66,438.38,448.3,456.74,466.67,476.87,487.77,499.27,511.73,523.81,537.69,547.94,557.66,567.23,577.03,585.12,595.99,607.14,618.99,630.28,640.84,651.4,661.53,671.32,681.81,694.64,704.7,712.07,722.48,733.01,744.8,756.52,767.97,780.32,791.08,801.91,811.9,822.62,836.36,841.85,854.23,871.24,885.3,899.58,913.73,923.55,939.2,949.03,958.19,967.09,976.08,983.24,994.31,1005.3,1017.4,1030.9,1042.1,1052.1,1061.1,1069.7,1077.9,1090,1097.4,1099,1105.4,1112.9,1120.2,1128.3,1135.3,1142.9,1149.8,1157.1,1164.1,1172.2,1179.4,1180.5,1185.4,1195.7,1201.2,1207,1209.9,1223.7,1234.2,1244.4,1255,1266,1275.2,1279,1286,1292.5,1299.4,1306.1,1315.6,1327.2,1339.8,1360.5,1378.3,1395.8,1413.7,1424.7,1440,1454.9,1469.2,1483.2,1497.6,1511,1525.3,1540.8,1558.8,1582.1,1591.9,1607,1617.6,1627.8,1639,1648.1,1656.7,1667,1674.7,1681.9,1689.5,1693.9,1692.8,1695.8,1698.4,1701.5,1706.2,1710.3,1716.5,1728.3,1735.4,1746.5,1758.2,1770,1773.5,1781.3,1785.1,1786.8,1787.7,1785.5,1782.8,1781.6,1787.5,1790.4,1795.1,1799.8,1799.7,1806.8,1814.3,1823.1,1829.8,1835.6,1838,1836.9,1831.2,1826.6,1827.8,1822.9,1815.4,1814.9,1815.6,1820.5,1825,1829.2,1831.7,1834.8,1837,1840.2,1849.3,1844.1,1843.8,1841.5,1838.9,1838,1836.1,1835.4,1833.7,1830.6,1830.3,1832,1832.6,1832.8,1825.5,1823.4,1829.5,1828.3,1825.4,1824.1,1815.8,1821.8,1823.7,1825.1,1826.9,1827.5,1822.3,1822,1820.7,1817.7,1815,1811.1,1808.2,1802.5,1804.4,1799.1,1793.6,1790.6,1780.8,1779.6,1779.2,1781.8,1781.9,1781.6,1782.6,1780,1784.5,1780.4,1775.9,1768.9,1753.8,1743.9,1734.6,1727.7,1719.3,1712.2,1705.3,1698.3,1693.9,1700.4,1698.9,1698.1,1684.7,1689.5,1688.3,1688.1,1685.6,1681.1,1676,1668.7,1661.7,1656.8,1647.9,1638.6,1623.7,1618.6,1607.7,1592.1,1582.5,1581.8,1567.7,1565.7,1558.4,1552.4,1546.6,1535.1,1534.9,1527.8,1521.5,1515.4,1502.1,1500.9,1493.6,1485.7,1478.8,1473.9,1466.3,1454.1,1446.4,1437.7,1427.7,1418.4,1408.7,1397.7,1386.2,1379.4,1368.2,1356.2,1344,1329.2,1318,1308,1298.8,1289.5,1279.2,1272.6,1262.7,1254.5,1252.9,1246.6,1239.7,1226.8,1219.5,1210.9,1201.3,1191.2,1180.9,1169.5,1157.6,1144.8,1133.3,1125.3,1108.4,1093.2,1085.3,1074.6,1065.4,1055.5,1045.3,1036,1026.4,1018,1009.4,1002.4,995.8,984.62,976.96,970.04,963.49,957.06,949.18,946.17,939.05,930.91,921.83,912.45,902.66,887.75,877.45,867.58,857.6,848.06,839.34,832.1,823.67,820.33,812.73,806.16,795.45,788.71,781.53,774.15,767.46,761.56,755.13,748.66,742.46,736.41,731.6,728.15,721.29,715.81,710.08,704.29,699.04,693.27,686.87,680.2,672.82,665.77,659.41,654.5,645.48,638.87,631.91,625.45,618.92,612.57,606.53,599.82,593.82,587.58,581.29,575.19,568.88,563.09,554.96,550.63,544.04,538.08,534.45,529.69,524.71,519.59,514.69,509.87,504.74,499.53,494.73,489.29,484.34,478.96,473.14,467.21,461.35,454.5,448.61,441.88,435.43,429.23,422.99,416.7,410.99,404.75,399.12,393.67,387.56,382.07,376.88,371.43,366.09,361.76,356.73,352.2,347.91,343.92,340.1,336.11,332.49,328.58,325.3,321.62,317.93,314.11,309.98,306.54,302.67,298.36,294.24,289.93,285.43,281.23,276.94,272.25,267.74,262.95,258.04,254.03,249.69,245.44,241.58,237.75,233.92,229.9,226.35,222.82,219.21,215.67,212.19,208.58,204.79,201.29,197.96,194.17,190.26,186.92,183.29,179.78,176.38,172.82,169.56,165.8,162.51,158.88,155.46,152.17,148.95,145.7,142.55,139.35,136.46,133.33,130.35,127.34,124.7,121.92,118.93,116.36,113.69,111.18,108.57,106.31,103.8,101.53,99.258,96.961,94.912,92.834,90.61,88.333,86.242,83.975,81.914,79.754,77.964,76.121,74.543,73.414
1.0329,1.1283,1.1702,1.2206,1.2592,1.3562,1.4128,1.4822,1.5467,1.5852,1.6611,1.7276,1.7565,1.7874,1.8659,1.9079,1.9318,1.9869,2.0064,2.0893,2.1013,2.1715,2.2547,2.2807,2.3056,2.4112,2.4672,2.5367,2.5638,2.623,2.7035,2.7345,2.8066,2.8947,2.9449,2.959,3.0162,3.0662,3.1734,3.2561,3.3531,3.4268,3.6367,3.8491,4.2035,4.4317,4.9017,5.4557,6.2228,7.1256,8.2413,9.6006,11.543,13.613,16.133,19.173,22.381,25.832,29.268,32.837,36.345,40.271,44.167,48.374,51.861,56.081,60.747,64.961,69.201,72.964,77.268,81.477,85.536,89.896,94.12,98.44,102.44,106.75,111.32,116.06,121.03,126.3,131.57,136.54,142.21,147.5,152.9,158.56,164.2,170.14,176.48,183.06,189.52,196.15,202.52,209.61,216.13,223.67,231.24,237.13,244.43,251.65,258.74,266.45,274.24,282.45,290.82,299.45,308.5,317.39,326.6,334.29,342.43,350.87,359.84,369.48,379.53,390.14,400.49,412.57,422.7,432.97,442.87,450.9,461.02,471.14,481.83,493.41,505.39,517.26,530.89,541.08,551.13,560.55,570.23,578.33,589.06,600.1,612.02,623.33,633.76,644.01,654.11,663.72,674.19,686.9,696.75,704.24,714.57,724.67,736.53,748.37,759.67,771.79,782.55,792.87,802.94,813.41,827.18,832.36,844.93,861.91,875.55,889.71,903.08,913.31,928.62,938.35,947.62,956.49,965.67,972.9,983.8,994.97,1006.7,1020,1030.6,1040.9,1049.8,1058.1,1066.2,1078.2,1086.1,1087.7,1094.1,1101.2,1109,1116.6,1123.4,1131.3,1138,1145.5,1152.8,1160.3,1167.5,1168.6,1174,1183.7,1189.4,1194.9,1198.1,1211.4,1221.4,1232,1242.4,1253.3,1262.4,1267,1273.3,1279.9,1287.1,1293.7,1303.4,1314.4,1326.6,1347,1365.2,1382.4,1400.4,1410.9,1425.7,1441.1,1455.1,1469.1,1483.8,1497.6,1511.2,1526.6,1544.3,1567.8,1577.4,1592.2,1602.9,1613.5,1624,1633.4,1642,1652.2,1659.7,1667,1674.5,1679.1,1677.5,1680.2,1683.6,1686.4,1690.8,1695.6,1701.6,1713.3,1720.7,1731,1742.7,1754.7,1758.7,1766.2,1770.1,1771.5,1772.3,1770.1,1768,1766.4,1772.3,1775,1780.2,1784.5,1784,1791.1,1799.1,1808.1,1814.4,1820.1,1822.6,1821.8,1815.7,1811,1812.5,1807.9,1800.3,1799.6,1800.7,1805.5,1810.5,1813.8,1816.6,1819.4,1821.4,1825.1,1834.2,1828.4,1829.1,1826.3,1823.6,1822.9,1820.8,1820.2,1818.5,1815.5,1815.3,1817.3,1817.9,1817.8,1810.9,1809,1815,1813.8,1810.9,1809.8,1801.6,1807.7,1809.6,1810.7,1813.1,1813.2,1808.3,1807.9,1806.7,1803.8,1801.2,1796.9,1794.3,1789.3,1790.4,1785.3,1780.1,1776.7,1768.3,1766.1,1766.3,1768.9,1769.1,1769,1769.5,1767.5,1771.5,1768.2,1763.2,1756.4,1740.9,1731.1,1722,1715.3,1706.9,1699.6,1693,1686.5,1682.6,1689.2,1687.6,1686.2,1673.8,1678,1676.7,1676.8,1673.7,1669.8,1664.5,1657.5,1650.6,1646.3,1637.4,1628.5,1612.6,1608,1596.8,1581.7,1571.8,1571.2,1556.8,1555.1,1547.5,1542.1,1536.5,1524.8,1525,1517.6,1511.9,1506.2,1493.2,1491.8,1484.3,1476.7,1469.7,1465.1,1457.7,1444.8,1436.9,1428.5,1418.9,1409.8,1399.5,1389.2,1377.7,1370.9,1359.7,1347.3,1335.3,1320.8,1310,1300.2,1290.9,1282,1271.2,1264.9,1255.5,1247.4,1245.7,1239.5,1231.8,1219.7,1211.7,1203.6,1193.8,1184.1,1173.4,1162.4,1150.7,1138.2,1126.7,1118.9,1101.8,1087,1079.1,1068.3,1059.2,1049.2,1039.1,1030,1020.5,1011.9,1003.5,996.72,990.29,979.24,971.82,964.7,958.1,951.79,943.94,940.9,933.65,925.44,916.71,907.08,897.18,882.59,872.45,862.71,852.86,843.6,834.56,827.5,819.48,815.97,808.68,801.81,791.28,784.79,777.37,770.14,763.52,757.82,751.08,744.9,738.73,732.73,727.89,724.32,717.7,712.38,706.44,700.75,695.52,689.61,683.35,676.77,669.32,662.66,656.06,651.15,642.14,635.56,628.87,622.27,615.76,609.14,603.52,596.64,590.59,584.71,578.43,572.15,565.91,560.17,552.06,547.97,541.19,535.22,531.99,526.74,521.76,516.81,512.04,506.78,502.1,496.96,491.91,486.8,481.85,476.26,470.74,464.65,458.67,452.17,446.04,439.41,432.94,426.88,420.54,414.47,408.62,402.79,396.95,391.26,385.55,379.8,374.62,369.45,364.3,359.61,354.62,350.19,346.19,342.01,338.09,334.18,330.56,326.79,323.45,320,316.08,312.57,308.34,304.96,300.83,296.49,292.55,288.39,283.95,279.72,275.39,270.95,266.47,261.48,256.89,252.61,248.44,244.24,240.5,236.71,232.77,229.04,225.37,221.65,218.09,214.72,211.18,207.46,203.92,200.22,196.82,193.15,189.31,185.89,182.4,178.96,175.47,172.01,168.62,165.02,161.7,158,154.79,151.3,148.21,144.88,141.88,138.62,135.7,132.64,129.62,126.76,124.02,121.25,118.52,115.93,113.03,110.53,108.27,105.67,103.22,101.05,98.78,96.372,94.44,92.217,90.1,87.885,85.697,83.544,81.488,79.498,77.485,75.864,74.25,72.998
0.9725,1.0886,1.1537,1.2153,1.2667,1.3367,1.3909,1.4699,1.5553,1.5981,1.6335,1.6942,1.7444,1.7622,1.8881,1.8956,1.948,2.0242,1.9937,2.0251,2.1063,2.1196,2.245,2.2547,2.2793,2.3798,2.456,2.4848,2.5344,2.5801,2.6496,2.7035,2.7798,2.8192,2.8321,2.8687,2.9705,3.0367,3.1501,3.1726,3.2903,3.4403,3.5959,3.7426,4.0582,4.3003,4.7437,5.307,5.8808,6.7549,7.9653,9.2385,10.838,12.867,15.272,18.067,20.942,24.364,27.703,31.033,34.553,37.993,41.868,45.723,49.214,52.941,57.501,61.547,65.611,69.286,73.592,77.593,81.586,85.847,89.59,93.707,97.714,101.84,106.24,110.59,115.45,120.18,125.18,130.1,135.68,140.66,145.94,151.42,157.09,162.68,168.55,174.75,181,187.06,193.35,200.34,206.49,214.18,221.35,227,233.94,241.14,247.83,255.37,262.59,270.42,278.46,287.1,295.7,304.24,312.73,320.29,328.39,336.53,345.32,354.03,363.57,373.64,383.93,395.3,405.68,415.93,425.12,432.81,442.37,452.24,462.63,474.12,485.81,497.15,510.01,519.86,529.71,539.14,549.1,557.03,567.69,578.3,589.78,600.96,611.39,621.7,631.8,641.14,651.07,663.85,673.4,680.86,690.92,701.24,712.71,724.44,735.4,747.36,758.48,768.64,778.79,788.63,802.05,807.55,819.76,835.75,849.58,863.13,876.27,885.98,900.74,910.56,919.85,928.89,937.74,944.89,955.9,967.35,979,991.92,1002.3,1012.4,1020.9,1028.7,1037.1,1048.9,1056.4,1058.4,1065.1,1072.1,1080.2,1087.4,1094.3,1102.1,1109.2,1115.9,1123.7,1131.5,1138.1,1139.5,1144.5,1154.5,1160,1165.9,1169,1182.3,1191.7,1201.9,1212.5,1223.3,1232.3,1236.3,1242.8,1249.3,1256.3,1263.5,1272.9,1283.9,1296.2,1316,1333.3,1349.5,1367.3,1378.1,1392.6,1407.2,1421.2,1434.5,1449,1462.4,1476.6,1491.5,1508.9,1531.7,1541.4,1555.2,1565.9,1576.3,1586.7,1596.1,1604.8,1614.7,1622.5,1630,1637.6,1641.6,1640.3,1643.4,1646.9,1649.7,1654,1658.5,1664.7,1676.2,1683.8,1694,1705.6,1717.4,1721.6,1728.6,1732.1,1733.9,1734.4,1732.1,1730.5,1728.9,1734.5,1737.7,1742.2,1747.2,1747.3,1754.2,1762,1770.5,1777,1782.1,1784.6,1783.8,1778.2,1773.5,1775.2,1770.5,1763,1762.8,1764,1768.1,1773.6,1777,1780.5,1782.7,1785,1788.3,1797.5,1791.7,1792.3,1789.7,1787.2,1786.3,1784.2,1783.8,1782.2,1779.6,1779.4,1781.7,1781.8,1781.8,1775.1,1773.4,1779,1777.9,1775.3,1773.6,1766.4,1772,1773.4,1775,1776.6,1777.9,1772.6,1772.6,1771.9,1768.5,1765.9,1762.3,1759.7,1754.6,1756.5,1751.2,1746.2,1742.9,1733.8,1732.5,1732.4,1735.1,1734.9,1735.2,1735.8,1733.4,1738,1734.8,1730.1,1723.3,1708.5,1698.1,1689.8,1682.9,1675.4,1668.4,1662.2,1655.4,1651.3,1657.3,1655.8,1655.1,1643,1647.6,1646.4,1646.2,1643.3,1639.1,1634,1627.3,1620.5,1615.7,1606.7,1598,1582.6,1577.8,1566.8,1551.5,1542.7,1541.5,1527.8,1526.5,1518.9,1513.9,1508,1496.9,1497.2,1490.5,1484.7,1478.6,1466,1464.9,1457.4,1449.9,1443,1438.1,1430.4,1418.3,1410.8,1401.7,1392.6,1384.1,1374,1363.5,1352.3,1345.3,1334.9,1323,1311.8,1296.9,1286.2,1276.3,1267.6,1258.5,1248.6,1242.2,1232.2,1225.2,1222.7,1216.5,1209.5,1197.7,1190.1,1182.3,1173.3,1163.3,1153.3,1142,1130.8,1118.2,1106.8,1099.3,1082.2,1067.2,1059.3,1048.5,1039.8,1029.9,1020,1011.2,1002.1,993.68,985.8,978.96,972.48,961.7,954.44,947.24,941.15,934.46,927.02,923.96,916.61,908.43,899.98,890.07,880.96,866.73,856.98,847.09,837.62,828.28,819.74,812.71,805.11,801.44,794.24,787.26,777.55,771.13,763.74,756.78,750.03,744.71,737.6,731.66,725.54,719.61,714.62,711.42,705.03,699.74,694.05,687.99,683.05,677.36,671.18,664.53,657.5,650.94,644.41,639.69,630.49,624.14,617.41,610.74,604.84,598.04,592.15,585.71,579.86,573.63,567.7,561.46,555.19,549.53,541.69,537.12,530.81,524.99,520.98,516.23,510.96,506.26,501.68,496.73,492.16,487.46,482.69,477.3,472.5,467.03,461.51,455.7,449.66,443.21,437.53,430.83,424.74,418.76,412.51,406.58,400.69,394.82,388.86,383.55,377.72,372.1,367.41,362.24,357.13,352.74,347.87,343.54,339.55,335.32,331.63,327.77,324.14,320.47,316.99,313.58,309.87,306.02,302.06,298.65,294.73,290.41,286.68,282.61,278.22,274.13,269.93,265.44,260.95,256.32,251.71,247.61,243.54,239.56,235.81,232.09,228.22,224.56,220.91,217.2,213.81,210.47,206.66,203.29,199.82,196.13,192.87,189.24,185.56,182.18,178.81,175.29,171.94,168.52,165.28,161.69,158.37,155.01,151.63,148.24,144.99,142.08,138.84,135.81,133,129.97,127.08,124.12,121.5,118.69,116.1,113.44,110.86,108.16,105.98,103.61,101.14,98.944,96.828,94.702,92.441,90.369,88.192,85.937,83.94,81.823,79.716,77.699,75.982,74.262,72.71,71.471
1.0588,1.1721,1.2112,1.3126,1.321,1.4222,1.4563,1.5342,1.6253,1.6438,1.6982,1.7778,1.8025,1.8535,1.9342,1.9542,2.026,2.0482,2.0808,2.1228,2.1481,2.17,2.2434,2.2578,2.312,2.3562,2.4233,2.4746,2.5522,2.6402,2.688,2.7478,2.7806,2.8275,2.9178,2.946,3.0051,3.0758,3.1344,3.2529,3.3394,3.5414,3.6111,3.8249,4.0628,4.3924,4.8389,5.4442,6.1072,6.9587,8.2908,9.4978,11.276,13.36,15.933,18.777,21.941,25.269,28.789,32.161,35.66,39.427,43.207,47.346,50.77,54.908,59.542,63.628,67.731,71.521,75.745,79.903,84.035,88.34,92.44,96.515,100.4,104.73,109.26,113.82,118.62,123.58,128.82,133.74,139.53,144.48,149.85,155.49,161.16,167.06,173.11,179.58,185.81,191.92,198.57,205.65,211.86,219.51,226.91,232.79,239.98,247.05,254.12,261.47,269.34,277.33,285.58,294.21,302.84,311.88,320.75,328.14,336.55,344.84,353.56,362.96,372.83,383.48,393.64,405.66,415.98,426.01,435.77,443.71,453.69,463.51,474.49,486.02,497.76,509.44,522.93,533.19,542.96,552.6,562.55,570.27,581.33,592.04,604,615.31,625.62,636.01,646.27,655.86,666.19,679.11,689.04,696.7,706.94,717.15,729.01,740.83,752.31,764.62,775.82,786.12,796,806.76,820.49,825.85,838.24,855.28,869.3,883.13,896.73,906.86,922.14,932.07,941.75,950.85,959.68,967.17,978.22,989.52,1001.2,1014.4,1025.1,1035.6,1044.7,1053.1,1061.1,1073.3,1080.8,1082.8,1088.9,1096.2,1104,1111.2,1118.5,1126.5,1133.2,1140.4,1148.2,1155.5,1162.6,1164.1,1169.2,1179.4,1184.7,1190.6,1194.2,1207.4,1217.4,1227.8,1238.4,1249.2,1258.6,1263,1269.7,1276.2,1283.6,1290.1,1299.6,1311,1323.2,1343.7,1361.6,1378.9,1396.7,1407.7,1422.7,1437.7,1451.5,1465.8,1480.3,1493.9,1508,1523.1,1541,1564.4,1574.6,1588.7,1599.7,1610.1,1620.8,1630,1638.7,1649.3,1656.6,1664.3,1671.4,1675.9,1673.9,1677.4,1680.8,1683.5,1688,1692.5,1699.3,1711,1718.4,1728.5,1740.3,1752.2,1756.7,1763.7,1767.9,1769.3,1770,1767.5,1765.7,1764.5,1770.5,1773.3,1778,1783.1,1782.7,1790.2,1798.3,1807,1813.5,1818.7,1821.2,1820.1,1814.5,1809.9,1811.6,1807.3,1799,1798.5,1799.5,1804.3,1809.1,1813.3,1816.6,1818.7,1821.5,1824.5,1833.6,1828.4,1828.9,1826.1,1823.4,1822.8,1820.5,1819.7,1818.5,1815.4,1815.3,1817.6,1817.8,1817.9,1811.1,1809.4,1815.1,1813.8,1811.5,1809.7,1802.4,1807.9,1810.2,1811.1,1813.2,1814,1808.9,1808.6,1807.4,1804.5,1801.9,1798.1,1795.5,1790.5,1791.8,1786.2,1781.2,1778.1,1769.1,1768,1767.5,1770,1770.6,1770.6,1771.5,1769.4,1773.4,1769.9,1764.7,1758.1,1743.4,1732.9,1723.9,1716.6,1709.1,1702.1,1695.3,1688.7,1684.4,1691.3,1689.3,1688.4,1676,1680.3,1679.7,1679.3,1676.2,1672.1,1667.1,1660,1653.3,1648.3,1639.9,1630.4,1615.2,1610.5,1599.4,1584.1,1575.2,1573.9,1560,1558.2,1550.9,1545.2,1539.6,1527.8,1527.7,1520.4,1514.9,1509,1495.9,1494.6,1487.1,1479.8,1472.2,1467.7,1460.1,1447.7,1439.9,1430.8,1421.5,1412.4,1402.6,1391.9,1380.5,1373.5,1362.6,1350.3,1338.2,1323.7,1312.9,1302.7,1293.6,1284.7,1274.4,1267.7,1257.9,1250.4,1248,1242.4,1234.3,1222.5,1214.6,1206.3,1196.8,1186.8,1176.4,1165,1153.5,1140.8,1129,1121.3,1104.7,1089.5,1081.8,1071.3,1062.1,1052.3,1042.1,1033.2,1023.4,1015,1006.4,999.29,992.57,982.18,974.43,967.45,960.98,954.36,946.69,943.84,936.34,928.03,919.87,909.83,900.12,885.24,875.28,865.55,855.43,845.91,837.37,829.58,821.86,818.66,811,804.17,793.79,786.68,779.56,772.73,765.48,759.95,753.11,746.97,740.66,734.86,729.81,726.22,719.78,714.15,708.45,702.82,697.45,691.85,685.24,678.84,671.42,664.35,658.01,653.14,643.91,637.09,630.34,623.72,617.64,610.9,604.61,598,592,585.95,579.92,573.49,567.04,561.4,553.34,549.26,542.66,536.67,533.13,528.19,522.95,517.82,513.32,508.08,503.36,497.75,492.84,487.7,482.62,477.26,471.49,465.73,459.4,452.63,446.87,440.05,433.49,427.31,421.12,415,409.06,403.22,397.41,391.65,385.86,380.15,374.97,369.46,364.52,359.8,354.71,350.58,346.26,342.1,338.32,334.44,330.58,326.84,323.56,319.95,316.13,312.51,308.27,304.65,300.69,296.47,292.52,288.38,283.74,279.66,275.14,270.76,266.1,261.32,256.58,252.6,248.19,244.15,240.41,236.52,232.54,228.86,225.16,221.48,218.14,214.46,210.96,207.51,203.89,200.28,196.85,193.09,189.16,185.87,182.33,178.95,175.69,171.99,168.46,165.12,161.67,157.96,154.66,151.21,148.12,144.88,141.65,138.7,135.68,132.49,129.54,126.71,123.97,121.16,118.41,115.66,113.11,110.6,107.99,105.7,103.31,101.06,98.74,96.506,94.184,92.016,89.909,87.817,85.528,83.564,81.413,79.253,77.465,75.711,74.102,72.796
1.0185,1.1109,1.1621,1.215,1.2692,1.379,1.4312,1.5265,1.5337,1.6047,1.7587,1.7047,1.7745,1.8259,1.9097,1.9558,2.0032,2.0256,2.0906,2.0703,2.1194,2.1436,2.236,2.2388,2.3194,2.3871,2.4492,2.5618,2.5585,2.6583,2.6295,2.6769,2.7999,2.8905,2.9175,2.986,2.9904,3.1361,3.1622,3.2486,3.3687,3.4931,3.6575,3.7683,4.0742,4.4484,4.8297,5.3899,6.1145,7.0309,8.2386,9.5141,11.317,13.339,15.833,18.704,21.776,25.24,28.632,32.064,35.482,39.208,43.206,47.205,50.639,54.749,59.43,63.463,67.665,71.339,75.738,79.632,83.863,88.134,92.15,96.146,100.2,104.64,108.87,113.64,118.48,123.35,128.41,133.51,139.26,144.21,149.55,155.11,160.74,166.63,172.67,178.81,185.11,191.63,198.13,205.16,211.24,218.93,226.4,231.93,239.28,246.45,253.24,261,268.7,276.76,284.99,293.53,302.66,311.12,319.9,327.74,335.87,344.27,352.85,362.15,371.94,382.5,392.87,404.55,414.99,425.15,434.74,442.47,452.48,462.34,473.17,484.57,496.08,508.13,521.25,531.88,541.56,551.53,561.26,568.93,579.27,590.14,602.03,613.41,624.07,634.27,644.11,653.98,664.03,677.04,686.7,694.33,704.17,714.69,726.36,737.99,749.29,761.5,772.62,782.8,793.24,803.64,816.7,822.5,834.75,851.65,865.12,878.87,891.99,902.48,917.41,927.86,937.52,946.3,955.36,962.42,973.37,984.36,996.36,1009.4,1020.2,1030.7,1039.4,1048.2,1056.4,1068.8,1076,1078.3,1084.3,1091.6,1099.9,1106.8,1114.3,1122,1129,1136,1143.2,1150.8,1158,1159,1164.4,1174,1179.9,1185.3,1188.5,1201.7,1211.4,1221.8,1232.4,1242.8,1252.4,1256.4,1263.4,1270.4,1277.1,1283.7,1292.7,1304.3,1315.3,1335.5,1353.5,1370.5,1388.3,1399.2,1414,1428.9,1443.2,1456.6,1471.7,1485.3,1499.1,1514.7,1531.9,1554.8,1564.5,1579.1,1590.2,1600.9,1611.7,1620.8,1629.4,1639.4,1647.3,1654.6,1662,1667,1665.1,1668.8,1671.4,1674,1678.5,1683.3,1689.3,1701.3,1708.3,1719,1730.6,1742,1746.4,1754,1757.3,1759.3,1760.5,1757.9,1756.2,1754.4,1760.1,1763.6,1767.9,1772.8,1772.3,1779.4,1787,1795.8,1802.7,1808.6,1811.2,1810.2,1804.5,1800.3,1801.8,1796.8,1789.2,1788.8,1789.7,1794.2,1798.6,1803.2,1806.2,1808.9,1810.9,1814.4,1823.3,1817.6,1818.6,1815.8,1813.8,1813,1810.6,1810.5,1808.8,1805.9,1805.2,1807.2,1808.1,1807.6,1800.9,1799.1,1804.8,1803.5,1801,1800,1792.4,1797.7,1800.6,1801.3,1802.8,1803.6,1798.7,1798.4,1797.6,1794.7,1792.7,1788,1785.6,1779.9,1781.5,1775.9,1770.8,1767.6,1758.4,1757.5,1756.6,1759.8,1759.7,1759.2,1760.7,1757.8,1761.8,1758.8,1754.4,1748.2,1732.3,1722.5,1713.3,1706.5,1698.8,1691,1684.5,1678,1673.6,1679.7,1678.2,1677.2,1664.7,1668.9,1668.2,1668.4,1665.3,1661.4,1656.1,1649.4,1642.4,1637.8,1629,1619.9,1604.5,1599.9,1589.1,1573.8,1564.1,1562.7,1548.9,1547.2,1539.7,1534,1528.1,1517.2,1516.8,1510,1504.1,1497.8,1485.1,1484.1,1476.8,1469.5,1462.6,1458.3,1450.4,1438.1,1430.3,1421.6,1412.3,1403,1393.7,1382.8,1371.6,1364.1,1353.5,1341.3,1330,1314.9,1304.6,1294.5,1285.5,1276.5,1266.6,1259.7,1249.6,1242.3,1240.9,1234.1,1227.4,1214.7,1207.3,1199,1189.7,1180,1169.2,1158.7,1146.9,1134.7,1122.7,1115.2,1098.4,1083.3,1075.6,1064.6,1055,1045.3,1035.1,1025.6,1016.5,1008,999.79,993.12,986.28,975.5,967.86,960.95,954.3,948.46,940.95,937.8,930.31,922.08,913.29,904.02,894.05,879.77,869.38,859.79,850.11,840.28,831.69,824.59,816.81,813.1,806.05,799.26,788.43,781.86,774.75,767.73,760.45,754.82,748.19,742.4,735.56,730.07,725.11,721.71,714.54,709.56,703.7,697.74,692.57,687.07,680.71,674.13,667.01,660.03,653.57,648.72,639.8,633.11,626.25,619.47,613.17,606.94,600.56,594.11,588.05,582.16,575.57,569.66,563.27,557.45,549.44,544.96,538.51,532.7,528.69,523.92,518.75,513.69,509.01,503.87,499.11,493.82,489.05,483.48,478.86,473.42,467.91,461.96,455.78,449.29,443.24,436.74,430.46,424.33,417.77,411.88,406.03,400.03,394.51,388.72,382.87,377.03,372.2,366.94,361.87,357.29,352.35,347.94,343.99,339.67,335.91,332.17,328.35,324.64,321.32,317.72,313.91,310.22,306.26,302.56,298.66,294.52,290.37,286.37,281.96,277.9,273.47,268.84,264.51,259.71,255.24,250.9,246.64,242.59,238.71,234.99,231.08,227.31,223.7,219.93,216.64,213.12,209.6,205.95,202.46,198.79,195.39,191.79,187.92,184.54,181.05,177.77,174.23,170.86,167.37,163.85,160.52,156.95,153.58,150.23,147.05,143.77,140.52,137.59,134.63,131.55,128.65,125.8,123.05,120.18,117.59,114.82,112.27,109.6,107.3,104.99,102.54,100.11,97.996,95.763,93.59,91.523,89.326,86.981,85.023,82.838,80.872,78.759,76.978,75.195,73.508,72.377
1.0373,1.1599,1.2307,1.2574,1.3207,1.3861,1.4622,1.5351,1.5449,1.6301,1.6735,1.7447,1.8508,1.8312,1.9335,1.9947,2.0041,2.0704,2.1,2.0601,2.1463,2.2192,2.2478,2.3115,2.3637,2.4256,2.4462,2.5061,2.5388,2.6287,2.6637,2.724,2.832,2.8348,2.8777,2.9759,3.0514,3.1256,3.1326,3.2409,3.3681,3.4855,3.6683,3.8409,4.1347,4.4258,4.9385,5.4614,6.1908,7.0173,8.267,9.5989,11.325,13.394,15.992,18.782,21.989,25.31,28.805,32.209,35.774,39.523,43.344,47.494,50.858,54.84,59.474,63.691,67.793,71.49,75.812,80.032,84.076,88.309,92.394,96.469,100.56,104.76,109.21,113.95,118.87,123.79,128.88,133.88,139.49,144.71,149.93,155.55,161.28,167.07,173.16,179.47,185.95,192.3,198.84,205.8,212.11,219.81,227.19,233.06,240.2,247.17,254.4,261.95,269.79,277.83,286.1,294.52,303.33,312.25,321.2,329.05,337.25,345.64,354.31,363.9,373.52,383.93,394.48,406.17,416.73,426.94,436.48,444.37,454.52,464.58,475.31,486.67,498.62,510.38,523.82,534.14,544.08,553.92,563.6,571.52,582.09,592.83,604.68,616.36,626.73,636.98,647.02,656.84,666.9,680,689.7,697.29,707.5,717.72,729.61,741.39,752.75,765.15,776.3,786.72,796.82,806.89,820.6,826,838.43,855.39,869.07,883,896.5,907.25,921.94,932.06,941.59,950.67,959.82,966.99,977.99,989.48,1001.1,1014.5,1025.1,1035.8,1044.6,1053,1061.5,1073.3,1080.7,1082.7,1089.3,1096.5,1104.3,1111.9,1118.9,1126.4,1133.5,1140.6,1148.5,1155.7,1162.8,1164,1169.5,1179.4,1185,1190.3,1194,1207.4,1217.1,1227.6,1238.3,1249.1,1258.4,1262.4,1269.8,1276.1,1283.2,1290.1,1299.4,1310.5,1322.9,1343.3,1361.2,1378.2,1396.1,1407.2,1422.2,1436.9,1451.4,1464.9,1479.9,1493.3,1507.4,1522.9,1540.9,1564,1573.9,1588.6,1599.2,1610.1,1620.6,1629.8,1639,1648.7,1656.5,1663.9,1671.5,1676.1,1674.3,1677.4,1680.6,1683.3,1688.2,1692.3,1698.7,1710.8,1718.6,1728.7,1740.1,1751.9,1756.3,1763.8,1767.5,1769.2,1770.4,1768.2,1766,1764.8,1770.4,1773.4,1778.4,1783.2,1782.7,1789.8,1797.8,1806.4,1813.4,1818.8,1821.5,1820.5,1814.8,1810.3,1811.6,1807.1,1799.4,1799,1800.1,1804.8,1809.5,1813.9,1816.7,1819.4,1821.5,1824.8,1834.1,1828.6,1829.1,1826.9,1824.3,1823,1821.5,1820.9,1819.3,1816.2,1815.8,1818,1818.4,1818.7,1811.9,1810.2,1815.9,1814.8,1812.2,1810.5,1802.5,1808.7,1810.7,1811.8,1813.8,1814.6,1809.4,1809.2,1808.4,1805.1,1802.6,1798.7,1796,1790.5,1792.3,1787.4,1781.5,1778.9,1769.8,1768.5,1767.8,1770.9,1770.5,1771,1771.8,1769.2,1773.4,1770.2,1765.5,1758.2,1743.2,1733.4,1724.3,1717.5,1709.4,1701.8,1695.4,1689.1,1684.7,1690.7,1689.6,1689,1676.2,1679.9,1679.2,1679.5,1675.9,1672.1,1667.1,1659.9,1652.9,1648.9,1639.4,1630.5,1615.7,1610.6,1599.3,1584.4,1574.3,1573.9,1559.9,1558,1550.6,1544.8,1539.2,1527.2,1527.6,1520.4,1514.6,1508.3,1495.3,1494.1,1486.9,1479.6,1472.1,1468,1459.9,1447.9,1440,1431.3,1422.1,1412.9,1402.8,1391.9,1380.5,1373.6,1362.8,1350.2,1338.7,1323.9,1312.9,1302.7,1293.5,1285.1,1274.6,1267.5,1257.8,1250.3,1248.4,1242.2,1235.4,1222.4,1214.8,1206.8,1197.1,1187.2,1176.7,1165.7,1154,1141,1129.5,1121.8,1105.1,1089.7,1082.2,1071.3,1062.1,1052.2,1042.4,1032.8,1023.7,1015.3,1006.6,1000,992.99,981.95,974.35,967.63,961.11,954.44,947.04,944.2,936.57,928.07,919.7,910.01,900.29,885.67,875.48,865.54,855.55,846.08,837.46,830.19,821.85,818.79,811.29,804.28,793.84,786.92,779.77,772.59,765.47,759.62,753.28,747.14,740.69,734.84,729.77,726.37,719.51,714.12,708.39,702.67,697.14,691.69,685.05,678.73,671.34,664.5,658.01,652.91,643.93,637,630.42,623.64,617.38,610.52,604.58,598.1,592.09,586.04,579.69,573.46,567.24,561.56,553.27,549.19,542.59,536.62,533.02,528.1,522.77,517.76,512.99,508.01,503.36,497.98,493.13,487.64,482.65,477.2,471.34,465.61,459.4,452.59,446.81,440.08,433.59,427.69,421.09,415.13,409.16,403.15,397.72,391.84,385.93,380.22,375.15,369.85,364.58,360.21,355.16,350.38,346.38,342.41,338.48,334.59,330.73,327.04,323.76,320.2,316.33,312.7,308.67,304.72,301.16,296.59,292.71,288.55,283.89,279.74,275.45,270.81,266.24,261.58,257.04,252.71,248.48,244.34,240.46,236.64,232.72,229.04,225.39,221.66,218.28,214.6,211.1,207.52,204.02,200.42,196.82,193.23,189.47,185.96,182.42,179.06,175.7,172.12,168.73,165.15,161.8,158.29,154.9,151.43,148.28,144.97,141.83,138.67,135.69,132.71,129.85,126.89,124.13,121.4,118.51,115.86,113.23,110.76,108.17,105.75,103.44,101.1,98.816,96.584,94.341,92.172,90.017,87.819,85.574,83.659,81.534,79.305,77.524,75.743,74.159,73.011
1.0058,1.1474,1.1906,1.2583,1.2871,1.3666,1.4989,1.4889,1.5826,1.6378,1.7035,1.7351,1.8006,1.8049,1.8918,1.9739,1.9891,2.0614,2.0904,2.1089,2.1707,2.2372,2.231,2.3129,2.3714,2.4793,2.4547,2.5584,2.6136,2.6396,2.6919,2.7299,2.8002,2.824,2.8667,2.9755,3.0631,3.0992,3.1322,3.2333,3.3198,3.4849,3.6453,3.8053,4.099,4.4746,4.7644,5.4156,6.0093,6.9834,8.1298,9.5231,11.268,13.234,15.646,18.531,21.718,24.964,28.5,31.788,35.287,38.899,42.73,46.787,50.256,54.126,58.722,62.967,67.097,70.738,74.997,79.178,83.274,87.517,91.295,95.453,99.58,103.77,108.3,112.88,117.68,122.67,127.55,132.65,138.47,143.56,148.7,154.36,159.99,165.67,171.86,178.03,184.36,190.73,197.27,204.16,210.39,218.04,225.36,231.18,238.43,245.67,252.61,260,267.73,275.7,284.09,292.63,301.36,310.04,318.75,326.79,334.87,343.13,351.95,361.02,370.74,380.97,391.36,403.48,413.65,423.86,433.3,441.25,451.15,461.03,472.2,483.43,495.11,506.72,520.13,530.51,540.38,550.02,559.91,567.65,578.24,589.27,600.99,612.45,622.78,633.1,643.37,652.91,663.04,676.14,685.81,693.5,703.41,713.81,725.41,737.17,748.79,760.74,772.07,782.38,792.47,803.06,816.56,822.01,834.46,851.16,865.03,878.68,892.17,902.41,917.6,927.96,937.43,946.64,955.77,962.88,973.77,985.34,996.84,1010.7,1021.1,1031.5,1040.3,1049.4,1057.7,1069.6,1077.2,1079.1,1085.8,1093,1101.1,1108.6,1115.8,1123.4,1130.3,1137.6,1145.2,1152.7,1160.1,1160.9,1166.4,1176,1182.2,1187.4,1191,1204.2,1214.4,1224.1,1235,1245.5,1255.1,1259.1,1266.4,1272.8,1280.1,1286.4,1295.9,1307.1,1319.2,1339.4,1357.3,1374.3,1391.9,1403.2,1418.2,1433.1,1447.1,1461,1476.2,1489.7,1503.6,1519.3,1536.7,1559.9,1569.6,1584.1,1595.4,1606.1,1617.2,1626.6,1635.2,1644.8,1652.7,1659.8,1667.2,1672.7,1670.9,1674.1,1677.3,1680.4,1684.7,1689,1695.2,1707.2,1714.2,1724.9,1736.4,1748.1,1752.4,1759.7,1763.8,1765.7,1766.8,1764.6,1762.7,1761.2,1767,1769.8,1774.6,1779.4,1779.1,1785.8,1794.2,1802.8,1810,1815.2,1817.9,1817.1,1811.6,1807.2,1808.8,1804.1,1796.2,1795.8,1796.8,1801.1,1805.9,1810.6,1813.5,1816.7,1818.4,1822,1830.4,1825.1,1825.9,1823.6,1821.2,1821,1818.5,1818,1816.3,1813.3,1812.8,1815.4,1815.7,1815.9,1808.8,1807.4,1812.9,1811.7,1808.9,1807.8,1800,1805.8,1807.9,1809,1810.5,1811.6,1806.8,1806.5,1805.5,1802.6,1800.9,1796.4,1793.2,1788.1,1789.6,1784.6,1779.1,1776.2,1767,1765.6,1764.9,1767.5,1767.9,1768,1768.9,1766.1,1770.5,1767.8,1763,1756.2,1740.7,1731.1,1721.7,1714.9,1706.9,1699.1,1692.8,1686.1,1682,1688,1686.7,1685.2,1673,1677.4,1676.1,1676.7,1673,1669.4,1664.6,1657.2,1650.2,1645.4,1636.8,1627.8,1612.5,1608,1596.5,1581.1,1571.8,1570.9,1556.6,1554.7,1547.8,1542,1536.3,1525.3,1524.9,1518.3,1511.9,1506,1492.5,1492,1484.3,1476.7,1470.2,1465.5,1457.7,1445.4,1437.8,1428.6,1419.4,1410.7,1401.1,1389.9,1378.7,1371.6,1361,1348.8,1336.7,1322,1311.3,1301.3,1292.2,1283.2,1273.2,1266.2,1256.3,1248.7,1247,1240.3,1233.2,1220.8,1213.4,1204.8,1195.3,1185.6,1174.6,1164.3,1152.4,1139.8,1128.2,1120.6,1103.7,1088.4,1080.9,1069.9,1060.9,1050.7,1040.3,1031.1,1021.8,1013.1,1004.9,997.91,991.05,980.56,972.72,965.61,959.2,952.87,945.04,942.46,934.65,926.56,917.8,908.28,898.42,883.95,873.97,864.17,853.94,844.42,835.82,828.4,820.63,817.35,809.82,802.95,792.34,785.62,778.23,771.22,764.31,758.47,751.69,745.6,739.19,733.64,728.65,725.07,718.09,712.82,706.94,701.1,695.75,690.1,684.02,677.28,670.18,663.05,656.43,651.39,642.49,635.85,629,622.08,616.18,609.73,603.27,597.08,590.96,584.74,578.63,572.47,565.99,560.3,551.86,547.73,541.2,535.24,531.41,526.63,521.45,516.15,511.67,506.5,501.5,496.44,491.72,486.2,481.04,475.94,469.9,464.19,458.13,451.36,445.58,438.95,432.51,426.45,420.05,413.69,408.18,402.12,396.38,390.47,384.89,379.32,374.21,368.96,363.73,359.14,354.09,349.76,345.37,341.45,337.56,333.68,329.97,326.35,322.85,319.21,315.52,311.7,307.58,303.98,300.05,295.9,291.93,287.57,283.16,279.17,274.74,269.88,265.61,260.81,256.27,252.1,247.73,243.57,239.63,235.9,231.97,228.32,224.73,221.04,217.63,214.14,210.38,207.1,203.4,199.85,196.44,192.75,189.01,185.42,181.97,178.53,175.14,171.63,168.1,164.64,161.25,157.72,154.34,150.9,147.7,144.48,141.46,138.37,135.33,132.32,129.33,126.28,123.84,120.83,118.09,115.28,112.81,110.29,107.87,105.42,102.94,100.71,98.316,96.148,94.047,92.017,89.597,87.621,85.392,83.334,81.192,79.221,77.178,75.555,73.866,72.692
1.0254,1.109,1.1762,1.2367,1.279,1.3508,1.4325,1.4931,1.5571,1.586,1.6435,1.7444,1.7999,1.8359,1.8607,1.9212,2.0167,2.0154,2.0644,2.1444,2.1359,2.1524,2.2481,2.2806,2.3452,2.3611,2.365,2.4385,2.5313,2.6095,2.6123,2.6913,2.7388,2.784,2.8326,2.9276,2.9333,3.0904,3.1261,3.2115,3.2705,3.3559,3.5535,3.7317,4.0474,4.2526,4.7345,5.3203,5.9683,6.828,8.0112,9.159,10.851,12.714,15.22,17.907,20.87,24.14,27.579,30.819,34.225,37.836,41.541,45.513,48.801,52.667,57.171,61.142,65.23,68.857,73.195,77.154,81.223,85.414,89.254,93.085,97.037,101.24,105.63,110,114.77,119.58,124.35,129.22,134.88,140.13,145.25,150.55,156.3,161.76,167.83,173.84,179.79,185.99,192.42,199.51,205.52,213.22,220.44,225.97,233.01,240.08,246.62,254.21,261.46,269.37,277.53,285.96,294.79,303.07,311.7,319.39,327.28,335.71,344.14,352.95,362.42,372.48,382.68,394.25,404.73,414.96,424.38,431.92,441.26,451.18,461.87,473.34,484.9,496.3,509.3,519.11,529.08,538.86,548.64,556.68,567.22,577.78,589.32,600.57,611.15,621.48,631.4,640.95,651.11,663.82,673.45,680.97,690.99,701.57,712.94,724.88,735.96,748.39,759.51,769.62,779.62,789.76,803.19,808.94,821.08,837.77,851.28,865.02,878.13,887.93,902.86,912.74,922.38,930.95,940.77,947.73,959,970.27,981.88,995.12,1005.7,1015.9,1024.5,1032.8,1041.4,1053.1,1060.6,1062.7,1069.2,1076.8,1084.7,1092,1098.9,1106.8,1113.8,1121,1128.7,1136.3,1143.6,1144.6,1149.8,1159.8,1165.6,1171.5,1174.6,1187.9,1197.9,1208.2,1218.8,1229.1,1238.5,1242.7,1249.3,1256.1,1263.4,1270.4,1280,1291.2,1303.1,1323.5,1340.7,1357.8,1375.5,1386.6,1401.3,1415.6,1429.9,1443.9,1458.3,1471.6,1486,1501.4,1518.5,1541.5,1551.2,1565.4,1576.2,1586.6,1597.6,1607.2,1615.9,1626,1633.8,1640.6,1648.1,1652.9,1651.1,1654.6,1657.7,1660.9,1665.1,1669.7,1675.9,1688,1695.1,1706,1717.6,1729.1,1733.8,1740.1,1744.5,1746.1,1746.9,1744.8,1743,1741.5,1747.4,1750.3,1755.5,1760.2,1760.5,1767.5,1775,1784,1789.9,1796,1798.2,1797.4,1791.9,1787.2,1788.9,1784.4,1776.5,1776.3,1777.4,1782.3,1786.9,1791.5,1794.2,1796.8,1799,1802.1,1811.7,1806.1,1806.7,1804.4,1801.8,1800.7,1798.6,1798.2,1796.7,1793.9,1793.8,1795.8,1796.5,1796.7,1789.9,1788.1,1794,1792.7,1790.2,1788.7,1781.3,1786.7,1788.6,1790.2,1791.5,1792.7,1788,1787.5,1787,1783.9,1781.3,1777.4,1775,1769.6,1771.2,1766.4,1761.1,1758.1,1748.8,1747.8,1747.5,1750.3,1750.3,1750.5,1751.5,1749.4,1753.5,1750.2,1745.1,1738.7,1723.6,1713.5,1704.6,1698.1,1690.3,1683.2,1676.8,1670.1,1666.7,1672.3,1670.9,1670.3,1657.8,1662.5,1661.2,1660.9,1658.3,1654,1649.1,1642.3,1635.3,1631,1622.3,1613.2,1597.5,1592.8,1581.7,1566.2,1557.2,1556.1,1542.4,1540,1533.5,1527.8,1522.2,1510.8,1511.3,1504.4,1498.5,1492.6,1479.4,1478.5,1471.2,1463.7,1456.4,1451.8,1444.3,1431.9,1424,1415.5,1406.3,1397.4,1387.3,1376.6,1365.7,1357.9,1347.4,1335.5,1323.7,1309.3,1298.3,1288.6,1279.4,1270.8,1260.9,1254.1,1244.2,1236.6,1234.5,1228.5,1220.8,1209.3,1201.6,1193.3,1183.9,1174,1164.2,1152.5,1141.9,1128.9,1117.4,1109.8,1092.8,1078,1069.8,1059.6,1050.4,1040.6,1030.3,1021.6,1012.1,1003.8,995.37,988.69,982.17,971.5,964.2,957.12,950.71,944.1,936.58,933.56,926.52,917.84,909.13,899.65,889.96,875.61,865.64,855.58,846.29,836.78,828.04,821.01,812.87,809.65,802.27,795.55,785.12,778.69,771.35,764.23,757.44,751.95,744.94,739.07,732.9,726.9,721.89,718.48,711.93,706.49,700.9,694.91,689.8,684.31,677.83,671.38,664.12,657.15,650.73,645.81,636.98,630,623.45,616.86,610.75,604.04,597.78,591.73,585.52,579.22,573.33,566.97,560.83,555.3,546.98,542.96,536.28,530.43,526.68,521.66,516.46,511.69,507.06,501.76,497.12,492.08,487.29,481.99,477.2,471.48,465.89,460.1,454,447.34,441.45,434.83,428.79,422.59,416.19,410.29,404.52,398.43,392.8,387.05,381.32,375.57,370.46,365.3,360.21,355.83,350.91,346.51,342.39,338.32,334.37,330.67,326.83,323.11,319.62,316.19,312.37,308.64,304.53,300.89,297.06,292.84,288.88,284.8,280.46,276.07,271.8,267.33,262.89,258.31,253.69,249.5,245.25,241.34,237.35,233.63,229.82,226.3,222.62,218.97,215.62,211.97,208.35,204.93,201.39,197.77,194.62,190.83,187.02,183.56,180.32,176.71,173.5,169.86,166.68,163.13,159.75,156.28,152.9,149.51,146.25,143.26,140,137.04,134.07,130.99,127.96,125.26,122.55,119.53,116.94,114.33,111.8,109.12,106.69,104.35,101.97,99.676,97.505,95.265,93.152,91.092,88.878,86.708,84.597,82.367,80.404,78.306,76.446,74.795,73.191,71.981
1.0536,1.1242,1.1772,1.289,1.3044,1.391,1.4501,1.5015,1.542,1.6208,1.6561,1.7321,1.7778,1.8572,1.8847,1.9317,1.9869,2.0235,2.0663,2.1,2.1611,2.1752,2.261,2.3117,2.3151,2.4195,2.3994,2.4943,2.5124,2.5785,2.6358,2.7195,2.7615,2.8549,2.7745,2.8595,2.9274,3.0247,3.124,3.1857,3.2769,3.3823,3.5792,3.7084,4.0344,4.3219,4.753,5.2708,5.9477,6.8426,7.9683,9.2269,10.837,12.937,15.256,18.043,21.045,24.362,27.6,30.982,34.379,37.92,41.719,45.653,49.028,52.986,57.342,61.416,65.395,69.081,73.466,77.475,81.567,85.723,89.449,93.472,97.432,101.51,106.01,110.54,114.99,119.96,124.91,129.72,135.48,140.56,145.7,150.98,156.53,162.29,168.27,174.19,180.49,186.52,192.85,199.86,206.01,213.75,220.67,226.49,233.4,240.44,247.29,254.5,262.24,269.99,278.16,286.4,294.9,303.5,311.98,319.9,327.95,336.21,344.64,353.57,362.76,373.08,382.84,394.62,405.12,415.49,424.68,432.32,441.77,451.61,462.16,473.6,485.27,496.55,509.41,519.62,529.33,539.17,548.78,556.68,567.48,578.02,589.63,601.05,611.53,621.86,631.96,641.26,651.47,664.33,674.1,681.51,691.56,701.94,713.6,725.4,736.69,748.99,760.19,770.53,780.45,790.75,804.08,809.7,822.49,838.69,852.42,866.19,879.25,889.28,904.16,914.02,923.55,932.59,941.93,949.21,960.19,971.6,983.15,996.37,1006.8,1017.1,1025.4,1033.9,1042.1,1054.3,1061.3,1063.9,1070.3,1077.6,1085.3,1093,1099.9,1107.6,1114.6,1121.7,1129.2,1136.9,1144.3,1145,1150.3,1160.2,1166.1,1171.3,1174.9,1187.9,1197.5,1207.8,1218.8,1229.4,1238.6,1242.5,1249.4,1256.2,1263.6,1270.1,1279.5,1291,1302.9,1323,1340.3,1357.4,1374.4,1385.9,1400.5,1414.7,1428.9,1442.7,1457.4,1470.9,1485.1,1500.8,1517.9,1540.2,1549.8,1564.3,1575.2,1585.6,1596.4,1605.6,1614.3,1624.4,1632.1,1639.6,1646.7,1651,1649.3,1652.8,1656.2,1659.4,1663.7,1667.8,1674.4,1686.4,1694,1703.8,1715.4,1727.5,1731.9,1738.6,1742.9,1744.2,1744.9,1742.5,1740.8,1739.5,1745.4,1748.1,1752.7,1757.5,1757.8,1765.3,1772.8,1781.7,1787.7,1793.1,1796,1795.2,1789.2,1784.8,1786.5,1781.9,1774.2,1773.5,1774.9,1779.4,1784.3,1788.8,1791.5,1794.3,1796.5,1799.4,1808.7,1803.3,1803.6,1801.1,1798.8,1798.1,1795.8,1795.2,1793.6,1791,1791.3,1792.9,1793.3,1793.5,1786.8,1785.1,1790.6,1789.6,1787,1785.7,1777.9,1783.4,1785.4,1787,1788.7,1789.7,1784.7,1784.2,1783.4,1780.6,1778.4,1774.2,1772,1766.6,1768.2,1763.4,1757.7,1754.8,1745.9,1744.7,1744.8,1746.9,1747.1,1747.6,1748.2,1745.7,1750.2,1747.2,1742.1,1735.8,1720.8,1710.2,1701.7,1694.6,1687,1680.2,1673.8,1667.1,1663.5,1669.5,1667.8,1667.1,1655.2,1659.5,1658.1,1658.2,1655.3,1651.2,1646.6,1639,1632.5,1628.1,1619.3,1610,1594.7,1589.9,1579,1563.6,1554.4,1553.5,1539.7,1537.7,1530.6,1525.1,1519.6,1507.9,1508.5,1501.3,1495.4,1489.9,1476.9,1475.6,1468.9,1460.7,1453.9,1449.6,1441.8,1428.9,1421.7,1412.8,1403.6,1394.4,1384.8,1374.5,1363.1,1355.5,1344.9,1332.9,1321.2,1306.9,1296.3,1286.3,1277.3,1268.3,1258.4,1252.2,1242.3,1234.7,1232.7,1226.6,1219.1,1207.3,1199.7,1191.5,1182.2,1172.5,1162.3,1151.1,1139.8,1127,1115.6,1108.1,1091.2,1076.4,1068.6,1057.9,1048.8,1039,1029.4,1019.9,1010.7,1002.2,993.81,987.26,980.54,969.92,962.69,955.65,949.13,942.5,935.31,932.4,924.71,916.44,908.14,898.36,888.64,874.25,864.62,854.58,845.03,835.53,827.03,819.85,811.92,808.73,801.18,794.25,784.09,777.54,770.55,763.53,756.53,751.02,744.1,738.18,732.2,726.25,720.99,717.75,711.16,705.47,699.93,694.07,688.97,683.27,676.93,670.38,663.1,656.27,650.03,645.19,635.9,629.29,622.69,616.04,609.85,603.23,597.1,590.77,584.97,578.74,572.49,566.47,559.96,554.37,546.53,542.29,535.57,529.74,525.98,521.1,515.34,510.66,505.95,500.82,496.28,491.39,486.53,481.47,476.43,471.05,465.23,459.32,453.11,446.67,440.92,434.44,427.98,421.72,415.5,409.44,403.72,397.91,391.98,386.37,380.37,374.97,370.12,364.5,359.53,354.99,350.27,345.66,341.62,337.73,333.66,329.9,326.23,322.38,319.08,315.46,311.63,308.05,303.82,300.4,296.37,292.4,288.33,284.1,279.84,275.76,271.2,266.95,262.46,257.77,253.13,248.89,244.68,240.8,237.11,233.37,229.5,225.77,222.23,218.51,215.07,211.63,208.1,204.58,200.95,197.38,194.04,190.27,186.67,183.34,179.93,176.33,173.16,169.53,166.31,162.8,159.38,155.94,152.64,149.18,146.02,142.71,139.8,136.61,133.63,130.72,127.76,124.89,122.11,119.34,116.71,114.1,111.31,108.96,106.46,103.95,101.7,99.421,97.206,95,92.8,90.709,88.495,86.421,84.385,82.208,80.101,78.055,76.163,74.453,73.015,71.639
1.0372,1.1074,1.1915,1.2494,1.3344,1.3537,1.4107,1.5002,1.581,1.6309,1.6763,1.7339,1.7695,1.8862,1.9264,1.9117,1.9876,2.0378,2.1267,2.1399,2.1951,2.231,2.2864,2.3099,2.3097,2.3331,2.3465,2.4401,2.4894,2.5756,2.5826,2.6742,2.721,2.8205,2.801,2.8716,2.9326,3.0187,3.1201,3.1375,3.2977,3.3843,3.5657,3.7043,4.0256,4.3046,4.7691,5.2719,6.0174,6.8267,8.0106,9.2146,10.839,12.899,15.255,18.09,21.077,24.465,27.683,31.105,34.402,37.971,41.873,45.775,49.057,52.954,57.498,61.573,65.603,69.156,73.649,77.495,81.634,85.732,89.753,93.601,97.683,101.85,106.1,110.76,115.28,120.02,124.86,130.01,135.57,140.64,145.9,151.42,156.87,162.54,168.55,174.74,180.77,186.87,193.11,200.2,206.28,213.8,220.99,226.68,233.85,240.83,247.5,254.65,262.22,270.33,278.2,286.69,295.31,303.69,312.29,320.16,328.08,336.43,344.7,353.79,363.07,373.14,383.35,395.23,405.3,415.67,425.23,432.6,441.97,452.03,462.43,473.99,485.73,496.87,510.14,519.83,529.8,539.62,549.21,557.26,567.76,578.57,590.12,601.46,611.99,622.31,632.37,641.98,651.87,664.78,674.57,682.13,692.38,702.69,714.16,726.27,737.48,750.01,760.89,771.3,781.27,791.2,804.63,810.74,822.99,839.55,853.21,867.07,879.97,890.05,904.74,914.96,924.5,933.4,942.79,949.73,960.82,972.2,984.04,997.07,1007.4,1017.7,1025.9,1034.5,1042.8,1054.7,1062.3,1064,1070.5,1078,1085.8,1093.2,1100.5,1108.2,1114.7,1122.2,1129.8,1137.3,1144.7,1145.6,1151,1160.8,1166.6,1171.6,1175.6,1188.4,1197.9,1208.4,1219.3,1230.2,1239.4,1243.3,1250.1,1256.2,1263.7,1270.9,1280.3,1291.6,1303.3,1323.6,1340.9,1357.9,1375.2,1386.6,1401.3,1415.3,1429.6,1443.2,1458,1471.4,1485.8,1500.9,1518.1,1540.9,1550.7,1565.3,1575.5,1586.4,1596.8,1606.7,1614.3,1625.1,1632.6,1640.2,1647.4,1651.8,1649.8,1653.5,1656.6,1659.8,1663.8,1668.3,1674.5,1686.7,1694.1,1704.5,1715.8,1727.7,1732.3,1739,1742.6,1744.8,1745,1742.6,1740.8,1739.6,1745.6,1748.6,1753.3,1758.2,1758.3,1765.6,1773.2,1781.7,1788.1,1793.5,1796.1,1795.3,1789.5,1785.3,1786.5,1782.3,1774,1773.9,1775,1780.1,1784.7,1788.7,1792.2,1794.5,1796.7,1799.7,1809.1,1803.2,1804,1801.5,1799,1798.5,1795.9,1795.2,1793.6,1790.9,1790.8,1793.4,1793.5,1793.8,1787.1,1785.1,1790.8,1790,1787.5,1785.7,1778,1784,1785.5,1787.4,1788.7,1790.1,1785.4,1784.5,1783.7,1781,1778.6,1774.5,1771.8,1766.9,1768,1763.4,1758.1,1755.3,1745.8,1745.1,1744.6,1747.2,1747.9,1747.8,1748.8,1746.1,1750.8,1747.5,1742.5,1735.8,1720.6,1710.6,1701.6,1695.1,1687.5,1680.7,1674.1,1667.6,1663.7,1669.5,1668.1,1667.5,1655.3,1660,1658.8,1658.3,1655.8,1651.7,1646.8,1639.5,1632.6,1628.5,1619.9,1610.7,1595.6,1590.4,1579.4,1563.6,1554.8,1554,1540.2,1537.9,1530.9,1525.8,1520,1508.7,1508.8,1501.8,1496.1,1490.6,1477.7,1476.2,1468.8,1461.4,1454.4,1449.3,1441.8,1429.4,1421.2,1412.9,1403.5,1394.9,1384.4,1374.4,1363,1355.4,1344.8,1333.1,1321.3,1306.8,1296.2,1286.5,1277.2,1268.5,1258.6,1252.4,1242.3,1235,1232.8,1226.6,1219.1,1207.4,1199.4,1191.4,1182.1,1172.5,1162.2,1151,1139.7,1127,1115.8,1107.9,1090.9,1076.4,1068.3,1058,1048.8,1038.5,1028.9,1020.3,1010.9,1002.4,994.27,987.35,980.7,969.85,962.73,955.84,949.14,942.98,935.33,932.23,924.98,916.45,908.21,898.15,888.45,873.95,864.4,854.29,844.84,835.36,826.56,819.74,811.87,808.78,801.07,794.79,784.16,777.57,770.53,763.58,756.45,751.11,744.01,738.34,732.03,726.11,720.87,717.66,711.07,705.85,700.23,694.06,688.9,683.42,676.96,670.44,663.24,656.6,650.02,645.14,636.07,629.58,622.71,616.22,609.74,603.29,597.34,590.55,584.88,578.84,572.56,566.24,560.37,554.26,546.48,542.29,535.8,529.96,526.24,521.11,515.97,511.08,506.43,501.17,496.73,491.68,486.74,481.53,476.6,471.19,465.41,459.56,453.61,446.83,441,434.51,428.23,422,415.68,409.59,403.94,398.06,392.1,386.41,380.79,375.14,370.16,364.73,359.73,355.25,350.4,345.98,341.77,337.76,333.83,330.16,326.34,322.68,319.19,315.82,311.88,308.3,304.24,300.64,296.5,292.44,288.33,284.35,280.04,275.82,271.34,267.02,262.53,257.77,253.34,249.19,245.05,240.87,237.26,233.5,229.61,225.96,222.27,218.6,215.29,211.69,208.25,204.77,201.06,197.59,194.26,190.42,186.74,183.48,179.94,176.49,173.17,169.65,166.47,162.91,159.53,155.98,152.51,149.34,146.06,143.01,139.93,136.79,133.78,130.82,127.9,124.98,122.23,119.55,116.69,114.11,111.51,108.88,106.56,104.1,101.8,99.661,97.201,95.141,92.956,90.827,88.688,86.458,84.515,82.412,80.304,78.199,76.39,74.627,73.084,71.8
1.0342,1.0893,1.199,1.2565,1.3197,1.3657,1.4162,1.4985,1.5604,1.6155,1.6653,1.7445,1.8124,1.8848,1.9402,1.9652,2.044,2.0621,2.113,2.1593,2.1919,2.2153,2.2825,2.3121,2.3344,2.4147,2.3983,2.4849,2.5079,2.5946,2.6742,2.7067,2.7615,2.7978,2.8723,2.9015,2.9619,3.0401,3.1688,3.2212,3.3829,3.48,3.6397,3.8194,4.0783,4.3301,4.722,5.3102,5.9659,6.9297,8.1159,9.3332,10.95,13.009,15.361,18.223,21.178,24.479,27.886,31.262,34.651,38.237,41.982,45.879,49.286,53.288,57.545,61.726,65.922,69.402,73.751,77.801,81.922,86.122,90.039,94.092,97.864,102.19,106.58,111.16,115.66,120.61,125.49,130.41,136.21,141.26,146.61,151.95,157.61,163.19,169.28,175.39,181.62,187.78,194.03,201.22,207.25,214.8,222.05,227.48,234.72,241.83,248.58,256.1,263.46,271.4,279.52,287.85,296.54,305.01,313.56,321.33,329.36,337.58,346.31,355.16,364.46,374.74,384.83,396.51,406.87,417.16,426.74,433.95,443.49,453.44,464.41,475.69,487.29,498.8,511.75,521.76,531.53,541.08,550.72,558.83,569.29,580.14,591.47,602.94,613.48,623.57,633.51,643.01,652.79,665.88,675.61,683.12,693.36,703.41,715.22,726.91,738.22,750.36,761.35,771.95,781.27,791.48,805.21,810.95,823.35,839.65,853.42,867.33,880.22,889.99,904.88,914.61,924.18,933.33,942.24,949.6,960.66,971.99,983.53,996.84,1007.5,1017.4,1025.9,1034.4,1042.5,1054.6,1062.1,1063.7,1070.6,1077.9,1085.6,1092.9,1100.1,1108,1114.5,1121.9,1129.3,1137.1,1144.2,1145.1,1150.5,1160.6,1166,1171.8,1175.3,1189,1198.4,1208.8,1219.7,1230.3,1239.4,1243.3,1250.1,1256.5,1264.4,1270.9,1280.6,1291.9,1304.1,1324,1341.9,1358.5,1376,1387.4,1401.9,1416.2,1430.3,1444.4,1459.1,1472.8,1486.9,1502.2,1519.7,1542.4,1552.3,1566.6,1577.5,1587.2,1598.3,1607.9,1616.4,1626.5,1634.1,1641.5,1648.9,1653.2,1651.6,1654.4,1658.5,1661.3,1665.8,1670.2,1676.4,1688.4,1695.6,1706.1,1718,1729.8,1734.2,1741,1744.9,1746.4,1746.9,1745.3,1742.8,1741.6,1747.8,1750.3,1755.5,1760.1,1760.6,1767.8,1775.7,1784.2,1790.9,1795.9,1798.6,1797.1,1792,1787.3,1788.7,1783.8,1776.6,1776.4,1777.5,1782.4,1787,1791.4,1794.4,1796.9,1799,1802.1,1811.9,1806.3,1806.6,1804.2,1801.7,1800.8,1798.7,1798.1,1796.7,1793.9,1793.8,1795.7,1796.6,1796,1789.8,1788.1,1793.7,1792.9,1790.4,1788.6,1781,1786.8,1788.1,1790.2,1792.1,1793.4,1788,1787.8,1786.7,1783.5,1781.7,1777.5,1775,1770.3,1771.6,1766.8,1761.1,1758.6,1749.4,1748,1748,1750.6,1751.6,1751.1,1752.2,1749.5,1753.9,1750.6,1745.6,1738.8,1724.3,1714,1705.2,1698.3,1690.7,1684.2,1677.3,1671,1667,1673,1671.5,1670.6,1658.6,1663.1,1661.9,1661.4,1658.9,1654.9,1650,1643.5,1636.1,1631.2,1623.2,1613.7,1598.8,1593.8,1582.7,1567,1558.1,1556.8,1543.5,1541.3,1534.3,1529.5,1523.5,1512.1,1512.3,1505,1499.6,1493.7,1480.7,1479.7,1472.1,1464.7,1457.7,1452.6,1445,1432.9,1424.3,1416.2,1406.5,1397.7,1387.8,1376.9,1365.7,1358.5,1347.6,1336.2,1324.4,1309.6,1298.9,1289.1,1279.6,1271,1261.3,1254.5,1244.8,1236.7,1235.1,1229,1221.4,1209.4,1201.8,1193.6,1184.4,1174.9,1164.6,1153.2,1141.9,1129.3,1118.1,1110.5,1093.4,1078.3,1070.6,1060,1050.9,1041,1031.4,1022.4,1013.8,1004.7,996.56,989.47,983.15,972.23,964.73,957.97,951.72,945.28,937.47,934.3,927.32,918.7,910.38,900.48,891.06,876.34,866.46,856.53,846.84,837.54,828.77,821.44,813.69,810.52,803.23,796.22,786.13,779.65,771.98,765.13,758.24,752.87,745.9,739.91,733.77,727.79,722.55,719.17,712.77,707.41,701.64,695.88,690.5,684.96,678.53,672.02,665.09,657.92,651.35,646.82,637.69,630.87,624.29,617.34,611.47,604.68,598.65,592.32,586.31,580.29,573.98,567.63,561.52,555.85,547.69,543.49,536.93,531.05,527.37,522.63,517.4,512.56,507.74,502.72,498.15,492.89,488.16,482.66,477.95,472.33,466.88,460.69,454.73,448.22,442.31,435.56,429.11,423.05,416.79,410.9,404.98,399.1,393.26,387.48,382.02,376.26,371.2,365.94,360.72,356.3,351.2,346.67,342.75,338.7,334.86,330.93,327.09,323.44,320.13,316.54,312.74,309.22,305.07,301.54,297.6,293.12,289.2,285.07,280.58,276.43,272.11,267.74,263.12,258.36,253.79,249.8,245.55,241.58,237.66,233.89,230.09,226.51,222.77,219.26,215.85,212.32,208.79,205.3,201.77,197.99,194.83,191.09,187.34,183.92,180.41,177.17,173.64,170.21,166.84,163.3,159.86,156.54,153.17,149.65,146.6,143.48,140.3,137.15,134.15,131.12,128.18,125.2,122.63,119.78,117.09,114.3,111.76,109.33,106.82,104.45,102.11,99.765,97.678,95.349,93.2,91.207,88.88,86.682,84.636,82.482,80.528,78.432,76.513,74.831,73.365,71.971
0.9941,1.1276,1.1924,1.2655,1.3381,1.3706,1.4519,1.5071,1.5574,1.5673,1.6846,1.7649,1.7794,1.8848,1.9217,1.9468,2.0049,2.0706,2.1469,2.1803,2.2025,2.2431,2.2714,2.3117,2.3483,2.3602,2.4603,2.5146,2.4976,2.5522,2.6131,2.644,2.7208,2.7542,2.8259,2.8975,2.9542,3.019,3.1083,3.2037,3.2697,3.4202,3.5443,3.7242,3.9747,4.3282,4.7078,5.1881,6.0001,6.7481,7.9178,9.2424,10.826,12.754,15.131,17.8,20.929,24.018,27.451,30.602,34.015,37.563,41.297,45.127,48.555,52.43,56.735,60.772,64.92,68.427,72.84,76.691,80.796,84.925,88.728,92.697,96.614,100.72,104.96,109.42,114,118.88,123.72,128.48,134.31,139.29,144.49,149.82,155.3,161.09,167.05,173,178.93,185.14,191.41,198.26,204.29,211.95,219.09,224.65,231.64,238.73,245.45,252.54,260.04,267.91,276.13,284.21,292.9,301.21,309.84,317.32,325.48,333.63,342.42,351.1,360.38,370.25,380.34,391.83,402.28,412.62,421.92,429.39,438.93,448.38,459.16,470.33,482.3,493.62,506.19,516.45,525.9,535.69,545.38,553.15,563.99,574.24,585.89,597,607.67,618.08,628.05,637.39,647.37,660.08,669.65,676.98,687.33,697.46,709.08,720.79,731.74,744.4,755.23,765.44,775.38,785.93,799.04,804.54,816.91,833.04,847.04,860.48,873.44,883.4,898.09,908.17,917.57,926.76,936.02,943.18,954.37,965.5,977.14,990.53,1001.2,1011.2,1019.6,1028.3,1036.3,1048.4,1056,1058,1064.3,1071.8,1079.7,1087.2,1094.3,1101.9,1108.9,1115.8,1124,1131.3,1138.3,1139.7,1144.9,1155.2,1160.6,1166.4,1169.7,1182.8,1192.9,1203,1213.3,1223.9,1232.9,1237.3,1244.2,1250.8,1258.2,1264.8,1274.5,1285.7,1297.5,1317.6,1335,1351.7,1368.8,1380.3,1394.7,1409.3,1423.3,1437,1451.8,1465.4,1479.4,1494.4,1511.8,1534.4,1544.4,1559,1569.6,1579.7,1590.8,1600.4,1608.9,1618.8,1626.7,1634.4,1641.5,1645.6,1644.7,1647.8,1651.1,1654.2,1658.7,1663.1,1669.5,1681.5,1688.7,1699.3,1710.5,1722.4,1726.4,1733.9,1737.6,1739.7,1740.2,1737.8,1736.2,1734.7,1740.8,1743.6,1748.3,1753.1,1753.1,1760.6,1767.8,1776.8,1783.6,1789,1791.7,1790.6,1785.4,1781,1782.4,1777.4,1770.2,1769.8,1770.7,1775.9,1780.7,1784.7,1787.5,1790.2,1792.5,1795.5,1804.9,1799.5,1800.3,1797.9,1795.4,1794.6,1792.3,1791.9,1790.6,1787.4,1787.6,1789.8,1790.1,1790.1,1783.5,1781.8,1787.6,1786.7,1783.9,1782.4,1774.7,1780.9,1782.2,1784,1785.7,1786.5,1781.7,1781.3,1780.3,1777.5,1775,1771,1768.5,1763.5,1764.7,1760.1,1755.3,1752.1,1742.7,1741.5,1740.9,1743.9,1744.3,1744.5,1745.4,1742.9,1746.9,1743.9,1739.2,1732.3,1717.5,1707.8,1699,1692.1,1684.4,1677.2,1670.7,1664.3,1660.4,1666.5,1664.7,1663.9,1652.2,1656.7,1655.2,1655.4,1652.1,1648.7,1643.4,1636.2,1629.7,1625.1,1616.3,1607,1592.1,1587.4,1576.3,1560.6,1551.4,1550.9,1536.6,1534.9,1527.8,1522.5,1516.7,1505.6,1505.7,1498.8,1493,1487.2,1474.1,1472.8,1466.2,1458.5,1451.1,1446.5,1439.3,1426.8,1419.4,1410.6,1401.6,1392.4,1382.2,1371.7,1360.7,1353.8,1343,1331.2,1319.4,1304.6,1294.3,1284.4,1275.2,1266.5,1256.5,1249.7,1239.8,1232.6,1230.5,1224.5,1217.2,1205.3,1198,1189.6,1180.4,1170.3,1160.4,1149.4,1137.6,1125.2,1114,1106.3,1089.3,1074.5,1066.5,1055.5,1046.6,1036.6,1027.2,1018,1008.7,1000.4,992.31,985.46,978.91,968.2,960.8,953.93,947.31,940.93,933.07,930.23,923.24,914.49,906.1,896.5,886.88,872.58,862.74,853.02,843.42,834.13,825.63,818.28,810.23,806.71,799.8,793.04,782.86,776.36,769.15,761.84,755.19,749.42,742.73,736.77,730.46,724.74,719.65,716.38,709.53,704.15,698.43,692.82,687.32,681.83,675.68,669.01,661.81,654.98,648.54,643.76,634.86,628.16,621.45,614.57,608.53,602.08,595.94,589.8,583.54,577.54,571.41,565.29,558.93,553.41,545.19,541.04,534.42,528.71,524.58,519.98,514.49,509.63,505.05,500.06,495.55,490.55,485.86,480.33,475.65,470.11,464.49,458.76,452.81,446.05,440.09,433.71,427.36,421.17,415,409.08,403.29,397.17,391.36,385.87,379.8,374.53,369.54,364.33,359.23,354.73,349.77,345.56,341.32,337.27,333.41,329.4,325.8,322.14,318.69,315.21,311.34,307.88,303.71,300.04,296.29,292.1,288.1,283.89,279.44,275.58,271.15,266.59,262.34,257.55,252.85,248.83,244.59,240.54,236.8,233.08,229.24,225.63,221.88,218.22,214.94,211.39,207.81,204.32,200.76,197.24,193.95,190.16,186.63,183.02,179.71,176.4,172.97,169.66,166.11,162.49,159.1,155.82,152.49,149.27,145.84,142.79,139.57,136.51,133.5,130.6,127.6,124.81,122.22,119.3,116.63,113.89,111.39,108.97,106.54,104.11,101.72,99.424,97.23,95.021,92.756,90.758,88.473,86.352,84.423,82.193,80.204,78.074,76.252,74.513,72.944,71.761
0.97104,1.0634,1.1415,1.2231,1.2892,1.4114,1.4587,1.4978,1.5517,1.5537,1.6267,1.7228,1.7697,1.8539,1.8444,1.9532,1.9946,2.056,2.0873,2.1003,2.1678,2.2105,2.2351,2.3272,2.3467,2.4636,2.4033,2.4531,2.4879,2.5336,2.5779,2.5633,2.6415,2.7437,2.7661,2.7685,2.8526,2.9352,3.0308,3.1619,3.2181,3.3207,3.5282,3.685,3.8992,4.1928,4.5705,5.0799,5.8444,6.5194,7.7126,8.8277,10.381,12.226,14.505,17.141,20.072,23.165,26.369,29.673,32.897,36.358,39.932,43.443,46.839,50.605,54.628,58.638,62.618,65.985,70.379,74.203,78.202,82.325,85.892,89.767,93.641,97.551,101.85,106.24,110.69,115.05,119.68,124.6,130.27,135.04,140.03,145.27,150.63,156.25,161.94,167.77,173.41,179.32,185.23,192.24,197.92,205.62,212.66,217.75,224.64,231.67,238.24,245.03,252.24,259.87,267.65,275.63,283.88,291.92,300.2,307.38,315.45,323.53,331.77,340.37,349.1,358.64,368.18,379.53,389.54,399.88,409.12,416.38,425.43,434.81,445.02,456.16,467.55,478.77,490.81,500.1,509.46,518.9,528.94,537.02,547.66,558.04,569.37,580.26,590.6,600.99,610.94,620.17,630.14,642.24,652.12,659.22,669.51,679.98,691.52,703.12,714.48,726.22,737.13,747.7,757.73,767.7,780.9,786.43,798.74,814.32,827.91,841.31,853.93,863.71,877.43,887.1,896.27,905.17,914.41,922.31,933.02,944.42,955.9,969,979.35,989.17,997.42,1005.4,1013.1,1025,1032.4,1034.1,1040.8,1047.9,1055.7,1063.1,1070.6,1077.8,1085,1091.8,1099.5,1106.9,1114,1115.6,1120.2,1130.6,1135.9,1141.6,1144.9,1158.5,1168.1,1177.9,1188.3,1198.5,1207.6,1211.4,1218.1,1224.5,1231.6,1238.6,1248.4,1259.8,1272,1291.8,1308.7,1325.2,1341.9,1352.7,1367,1381.2,1395.1,1408,1422,1435.7,1449.9,1464.8,1482.4,1504.1,1513.2,1527.4,1537.9,1547.9,1558.1,1567.8,1576.2,1586.3,1594,1601.3,1609,1613,1611.8,1614.3,1617.3,1621.4,1625.1,1629.9,1635.6,1647.9,1655.1,1665.8,1678,1688.5,1693,1699.7,1703.2,1705.3,1705.8,1702.9,1701.2,1699.4,1706,1708.6,1713.3,1718.1,1719,1726.1,1734.2,1742.3,1748.5,1753.5,1755.9,1754.4,1749,1744.8,1746.1,1741.8,1734.2,1734,1735.4,1739.4,1745,1749.2,1752.8,1754.6,1756.8,1760.2,1769,1763.8,1763.6,1761.1,1758.3,1758.4,1755.7,1755.2,1754,1751.8,1751.5,1754.1,1754.9,1754.5,1747.9,1746.1,1751.7,1750.8,1748.3,1746.9,1739.4,1745.3,1746.6,1748.5,1749.9,1751.4,1746.5,1746.3,1745,1742.2,1740.1,1735.9,1733.6,1728.6,1730.5,1726.2,1721.5,1718.1,1709.9,1709,1708.3,1710.5,1711.8,1712.2,1712.3,1710,1715.2,1711.3,1706.3,1700.2,1685.6,1675.9,1667.2,1660.8,1653.4,1647.3,1640.8,1634.2,1630.6,1636.5,1635.2,1634.7,1622.8,1627.4,1626.4,1626.2,1624,1619.3,1614.2,1607.6,1600.4,1596,1587.6,1578.1,1563.7,1558.6,1547.5,1532.7,1523.2,1522.9,1509.2,1507.9,1500.9,1495.7,1490,1479.2,1480,1473.1,1467.7,1461.9,1448.2,1448,1440.6,1433.1,1426.3,1421.4,1413.2,1401,1393.2,1384.8,1375.7,1367.3,1357.2,1346.8,1336,1329,1318.6,1307.2,1296.2,1281.2,1271.1,1261,1252.4,1243.5,1233.9,1227.5,1218,1210,1208.3,1202,1194.6,1183.7,1176.1,1168,1159.1,1150.1,1140.2,1128.7,1117.5,1104.9,1093.8,1086.5,1069.6,1054.6,1047.1,1036.8,1027.4,1017.8,1008.3,1000.1,990.78,983.05,974.82,968.28,961.53,951.2,944.08,937.43,931.02,924.82,917.23,913.98,906.88,898.25,890.03,880.21,871.42,857.14,847.65,837.83,828.5,819.66,811.13,803.99,796.29,793.28,785.53,779.38,769.42,762.8,755.88,749.33,742.64,737.18,730.32,723.99,718.16,712.18,707.45,704,697.42,692.3,687.23,681.45,676.4,670.45,664.19,657.96,650.72,643.87,637.97,633.11,624.33,617.71,610.97,604.34,598.6,591.93,585.84,579.48,573.66,567.36,561.82,555.18,549.61,543.68,536.09,531.96,525.36,519.55,515.32,510.38,505.48,500.54,495.95,491.17,486.73,481.98,477.51,472.03,467.33,462.09,456.41,450.77,444.74,438.11,432.3,425.97,419.43,414,407.66,401.68,395.98,390,384.22,378.69,373.08,367.24,362.7,357.53,352.54,348.22,343.36,338.93,335.08,330.91,327.3,323.47,319.84,316.17,312.98,309.31,305.45,302.14,298.2,294.35,290.53,286.41,282.52,278.55,274.26,270.2,265.99,261.72,257.36,252.71,248.16,244.44,240.11,236.14,232.54,228.8,224.97,221.44,217.95,214.28,210.86,207.58,203.92,200.54,196.84,193.57,190.19,186.38,182.89,179.64,176.26,172.96,169.58,166.22,162.92,159.45,156.11,152.8,149.46,146.28,142.98,139.95,136.78,133.92,130.97,127.93,125.1,122.26,119.62,116.94,114.41,111.51,109.15,106.61,104.31,101.96,99.7,97.388,95.189,93.127,90.929,88.832,86.856,84.59,82.628,80.614,78.526,76.444,74.574,73.035,71.418,70.23
0.9934,1.1317,1.1974,1.2378,1.3625,1.3956,1.4649,1.4885,1.5333,1.5943,1.6692,1.7744,1.8224,1.8709,1.9215,1.9702,2.047,2.06,2.0869,2.1137,2.1604,2.2149,2.2928,2.2941,2.3056,2.4057,2.4024,2.415,2.3948,2.4714,2.5206,2.5914,2.6859,2.7296,2.7851,2.8083,2.8359,3.0252,3.0392,3.1302,3.221,3.3302,3.4503,3.6214,3.8835,4.2158,4.6036,5.1618,5.7749,6.6298,7.6924,8.934,10.524,12.413,14.731,17.408,20.29,23.461,26.834,29.969,33.314,36.725,40.298,44.135,47.543,51.261,55.325,59.333,63.392,66.857,71.205,75.147,79.166,83.199,86.924,90.796,94.719,98.85,103.14,107.42,111.84,116.45,121.34,126.06,131.68,136.56,141.57,146.96,152.46,158.02,163.86,169.88,175.58,181.51,187.68,194.57,200.42,208.16,215.23,220.44,227.34,234.49,241.23,248.03,255.34,262.87,270.84,279.02,287.51,295.51,304.11,311.35,319.4,327.59,335.88,344.63,353.45,363.14,372.83,384.3,394.5,404.85,414.14,421.39,430.49,440,450.4,461.84,473.15,484.66,496.58,505.94,515.68,525.34,535.13,543.08,553.61,563.91,575.07,586.24,596.63,606.93,616.5,626.14,635.88,648.1,657.75,664.83,674.82,685.46,696.82,708.84,719.67,731.79,742.58,752.79,762.77,772.22,785.59,791.21,803.35,819.23,832.87,846.55,858.47,868.29,882.1,891.67,901.07,909.64,918.99,926.5,937.28,948.24,960.05,972.94,983.43,993.02,1001.6,1009.4,1017.3,1029.1,1036.2,1038.3,1044.9,1052,1059.9,1067.6,1074.5,1081.9,1088.6,1096,1103.9,1111,1118.6,1119.6,1124.5,1134.8,1140.1,1145.9,1149.6,1162.2,1172.1,1182.1,1192.7,1202.8,1212,1216.1,1222.3,1228.9,1236.3,1243.3,1252.9,1264.5,1276.9,1296.2,1313.6,1329.8,1347.2,1357.8,1372.3,1386.4,1400.1,1413.2,1427.5,1441.2,1455.3,1470.7,1487.9,1510.2,1519.5,1533.2,1543.7,1554,1564.5,1573.8,1582.5,1592.6,1599.9,1607.7,1614.9,1619.3,1617.7,1620.6,1623.7,1627.2,1631.6,1636.2,1641.9,1654,1661.1,1671.7,1683.6,1695,1699,1705.9,1709.4,1711.4,1712.2,1709.2,1707.4,1705.9,1712.1,1714.6,1720.1,1724.7,1725.2,1732.2,1740.4,1748.2,1754.7,1759.8,1762.3,1760.5,1755.3,1750.8,1752.3,1747.7,1740.2,1740.4,1741.8,1745.9,1751.1,1755.6,1758.7,1760.7,1763.2,1766.5,1775.2,1769.9,1770,1767.4,1764.8,1764.7,1762.3,1761.2,1760.1,1757.9,1757.6,1760.2,1761.2,1760.3,1754.3,1752.5,1758.4,1757.2,1754.7,1753.2,1745.5,1751.6,1753.1,1754.6,1756.3,1757.5,1752.3,1752.7,1751.8,1748.4,1746.3,1742.4,1740.5,1735,1737,1732.4,1727.2,1724.2,1716,1715.1,1714.4,1716.9,1717.9,1718.3,1718.5,1716.3,1721.4,1717.5,1712.7,1706.3,1691.8,1681.8,1673.1,1667.3,1659.4,1653.6,1646.6,1640.1,1636.4,1642.5,1640.8,1640.5,1628.7,1633.7,1632.9,1632.5,1630,1625.5,1620.6,1614.3,1606.8,1602.4,1594.1,1584.5,1569.9,1564.9,1554.1,1538.5,1529.3,1528.7,1514.8,1513.1,1506.5,1501.6,1496.3,1484.6,1485.6,1479.2,1473.1,1467.2,1454,1453.7,1446.3,1438.6,1431.7,1427,1419.1,1406.5,1398.7,1390.7,1381.3,1372.8,1362.4,1352.7,1341.2,1334.2,1323.5,1312.4,1300.9,1286.3,1276.2,1265.9,1257.3,1248.9,1238.9,1232.3,1222.9,1215.2,1213.3,1206.8,1199.4,1188.4,1180.9,1172.6,1164.1,1154.4,1144.5,1133.3,1122.4,1109.5,1098.5,1091.1,1074.5,1059.3,1052,1041.5,1032,1022.4,1013,1004.2,995.34,987.33,979.2,972.79,966.18,955.49,948.45,941.18,934.98,929.1,921.28,918.53,911.03,902.63,893.94,884.65,875.66,861.21,851.33,841.97,832.29,823.17,814.51,807.61,799.88,796.51,789.23,782.79,772.73,766.18,759.34,752.65,745.88,740.57,733.56,727.14,721.51,715.48,710.73,707.49,700.76,695.65,690.15,684.34,679.23,673.95,667.26,661.02,653.94,647.11,641.09,635.92,627.16,620.48,614.03,607.33,601.37,594.7,588.64,582.19,576.25,570.2,564.32,557.89,551.9,546.35,538.66,534.41,527.64,522.08,518.06,513.1,508.09,503.2,498.49,493.72,489.07,484.23,479.66,474.3,469.49,464.14,458.48,452.5,446.61,439.9,434.31,427.81,421.3,415.69,409.22,403.42,397.55,391.48,385.88,380.23,374.46,368.74,363.91,358.69,353.65,349.39,344.61,340.12,336.15,332.06,328.41,324.63,321.08,317.18,314.02,310.5,306.68,303.35,299.16,295.6,291.61,287.41,283.7,279.42,275.18,271.12,266.91,262.49,258.12,253.72,249.08,245.1,240.98,237.09,233.4,229.72,225.85,222.24,218.74,215.18,211.79,208.38,204.9,201.51,197.74,194.44,190.93,187.45,183.7,180.26,176.93,173.48,170.32,166.9,163.64,160.21,156.91,153.37,150.09,146.89,143.71,140.48,137.45,134.54,131.38,128.44,125.53,122.75,120.08,117.29,114.73,111.97,109.63,106.94,104.69,102.38,99.868,97.652,95.403,93.354,91.163,89.271,87.085,84.911,82.966,80.825,78.566,76.776,74.939,73.244,71.823,70.452
1.0164,1.0999,1.1783,1.2482,1.366,1.3756,1.4799,1.5026,1.5785,1.6007,1.6591,1.703,1.7888,1.8601,1.9211,2.0035,1.9981,2.0306,2.1394,2.2283,2.209,2.2787,2.2718,2.3444,2.4216,2.4467,2.4335,2.4395,2.5162,2.5601,2.5755,2.6099,2.7316,2.7951,2.7609,2.8268,2.8914,2.9812,3.0072,3.1252,3.2198,3.3926,3.5362,3.6697,3.9236,4.306,4.6107,5.2022,5.8638,6.6769,7.7817,8.9733,10.543,12.432,14.703,17.384,20.384,23.611,26.912,30.218,33.431,36.981,40.641,44.265,47.698,51.442,55.627,59.603,63.696,67.118,71.524,75.402,79.511,83.542,87.358,91.309,95.225,99.218,103.45,107.8,112.37,117.07,121.76,126.65,132.21,137.37,142.49,147.67,153.25,158.99,164.79,170.65,176.53,182.5,188.63,195.79,201.58,209.29,216.39,221.63,228.58,235.78,242.32,249.51,256.74,264.45,272.41,280.69,289.25,297.35,305.66,313.53,321.47,329.52,338.07,346.68,355.66,365.64,375.3,387.12,397.4,407.63,416.87,424.28,433.47,443.11,453.44,465.36,476.77,487.9,500.26,509.99,519.83,529.4,539.26,547.38,557.97,568.51,580,591.12,601.56,611.93,622.14,631.4,641.4,653.74,663.96,671.15,681.49,692.09,703.4,715.52,726.34,738.72,750.12,760.47,770.29,780.3,793.86,799.71,811.83,828.1,841.8,855.73,868.25,878.44,892.73,902.65,911.91,921.18,930.42,938.19,949.31,961.07,972.47,985.88,995.81,1005.7,1014.6,1023,1030.7,1042.9,1050.8,1052.2,1059,1066.5,1074.4,1081.7,1089.2,1096.7,1103.5,1111.1,1118.8,1126.2,1133.6,1134.9,1139.7,1150.3,1155.6,1161.5,1165.4,1178.1,1188.1,1198.8,1209.1,1219.5,1229.2,1232.8,1239.8,1246.5,1253.8,1260.8,1270.7,1282,1294.5,1314.6,1332.1,1348.9,1366.1,1377.6,1392.3,1406.7,1420.4,1433.8,1448.4,1462.3,1476.4,1492,1509.3,1531.7,1541.4,1555.5,1566.4,1576.6,1587.2,1596.9,1605.2,1615.7,1623.1,1630.8,1638.5,1642.6,1641,1644.2,1647.4,1651.3,1655.4,1660.2,1665.9,1678.4,1685.4,1696,1708.5,1719.4,1724.1,1731.1,1734.6,1736.5,1737,1734.9,1732.8,1731.9,1737.4,1740.7,1745.7,1750.6,1751.1,1758.6,1766.8,1774.9,1781.1,1786.6,1789.3,1787.4,1782.2,1777.6,1779.5,1774.7,1767.3,1767.5,1768.2,1773.4,1778.2,1782.3,1786.1,1788.6,1790.6,1794,1802.5,1797.1,1797.7,1795,1792.7,1792.1,1789.8,1789.2,1787.8,1785.2,1785.3,1788.1,1788.5,1788.9,1782.1,1780.2,1785.7,1785,1782.3,1781,1773.3,1779,1780.8,1782.6,1784.2,1785.9,1780.7,1781,1779.4,1776.6,1774.8,1770.5,1767.7,1762.8,1764.3,1759.5,1754.6,1752,1743.9,1742.6,1742.4,1744.6,1745.5,1746,1746.2,1744.2,1748.5,1744.7,1739.8,1733.3,1718.4,1708.6,1699.8,1693.6,1685.4,1679.2,1672.3,1665.8,1662.3,1667.9,1666.9,1666.7,1654.2,1659,1658.2,1657.6,1655.1,1650.6,1645.6,1638.8,1631.7,1627.3,1619,1609.6,1594.8,1589.9,1578.9,1563.2,1553.9,1553.2,1539.4,1537.5,1530.3,1525.5,1519.9,1507.9,1508.6,1501.6,1495.4,1490.5,1476.8,1476.2,1468.8,1460.8,1454.4,1449.2,1441.3,1429,1421,1412.5,1403.1,1394.5,1384.4,1374,1362.8,1355.1,1344.5,1333,1320.8,1306.6,1295.7,1285.7,1276.9,1267.7,1258.2,1251.8,1242.1,1233.8,1231.9,1225.9,1218.3,1206.4,1199,1191,1181.4,1172,1161.6,1150.3,1139.2,1126.3,1115.3,1107.7,1090.7,1075.6,1068.1,1057.8,1048.3,1038.4,1028.8,1020.3,1010.7,1002.5,994.05,987.64,980.62,969.7,962.9,955.95,949.67,943.44,935.63,932.45,925.43,916.53,908.52,898.11,888.67,874.28,864.65,854.96,845.05,835.81,826.94,819.84,811.98,808.63,801.28,794.85,784.35,777.75,770.49,763.57,756.83,751.13,744.25,738.01,732.3,726.32,721.18,717.65,711.14,706,700.32,694.55,689.25,683.7,677.12,670.85,663.42,656.53,650.14,645.25,636.32,629.67,622.83,616.08,610.17,603.31,597.39,590.86,584.84,578.62,572.93,566.16,560.5,554.3,546.73,542.48,535.6,529.92,526.35,521.42,516.47,511.19,506.45,501.52,496.92,491.74,487.11,481.59,476.6,471.57,465.77,459.71,453.66,447.11,440.98,434.44,428.11,421.85,415.6,409.46,403.75,397.77,392.1,386.49,380.59,374.94,369.79,364.46,359.59,354.89,350.17,345.78,341.59,337.33,333.54,329.47,326.11,322.23,318.98,315.38,311.65,308,303.79,300.14,296.18,292.27,288.01,283.87,279.65,275.51,271.17,266.78,262.07,257.48,252.94,248.85,244.71,240.73,236.88,233.16,229.13,225.51,222.2,218.46,214.99,211.53,208.09,204.56,200.98,197.38,194.02,190.3,186.56,183.25,179.8,176.39,173.14,169.67,166.21,162.82,159.29,155.92,152.4,149.16,145.8,142.84,139.62,136.52,133.49,130.31,127.65,124.65,121.93,119.09,116.53,113.75,111.26,108.64,106.35,103.9,101.47,99.144,97.094,94.967,92.802,90.792,88.555,86.271,84.254,82.072,79.959,78.061,76.136,74.429,72.836,71.598
0.95979,1.0693,1.1727,1.2593,1.3217,1.3718,1.4321,1.4781,1.5485,1.5792,1.6245,1.6836,1.7451,1.8473,1.8999,1.9274,2.0242,1.9958,2.1037,2.0815,2.1796,2.2065,2.2619,2.3023,2.3448,2.4281,2.3931,2.4424,2.5383,2.5517,2.5614,2.6147,2.6316,2.6863,2.7055,2.702,2.8258,2.9426,2.9947,3.0798,3.2518,3.2892,3.4776,3.7202,3.8717,4.186,4.5542,5.1218,5.8816,6.5966,7.7551,8.9683,10.566,12.637,14.772,17.487,20.448,23.658,27.009,30.109,33.403,36.996,40.467,44.325,47.672,51.434,55.751,59.684,63.727,67.157,71.565,75.527,79.421,83.519,87.298,91.242,95.089,99.086,103.33,107.7,112.35,116.95,121.73,126.43,132.24,137.22,142.27,147.51,152.99,158.67,164.48,170.4,176.3,182.35,188.33,195.55,201.31,209.02,215.98,221.38,228.21,235.42,241.96,249.05,256.57,264.11,272.02,280.23,288.87,296.87,305.28,312.8,320.86,328.91,337.52,345.9,354.93,364.73,374.41,385.85,396.06,406.48,415.84,422.97,432.27,441.76,452.36,463.54,475.32,486.26,498.78,508.09,517.69,527.15,537.03,545.1,555.69,566.08,577.38,588.49,598.83,609.13,618.86,628.22,638.04,650.32,659.7,667.3,677.13,687.53,698.81,710.41,721.63,733.49,744.43,754.57,764.42,774.2,787.42,793.1,805,820.92,834.45,847.82,860.42,869.97,883.61,893.49,902.57,911.75,920.73,928.01,939.07,950.18,961.95,974.87,985.51,995.12,1003.7,1011.5,1019.4,1031.1,1038.8,1040.6,1047.1,1054.7,1062.2,1069.5,1077,1084.7,1091.5,1098.7,1106.6,1113.6,1121.3,1122.3,1127.3,1137.6,1143,1148.8,1152.1,1165.4,1174.8,1185,1195.5,1205.7,1214.8,1218.8,1225.4,1232,1239.6,1246.3,1256.3,1267.6,1279.9,1299.3,1316.5,1333.3,1350.2,1361.1,1375.8,1389.6,1403.6,1416.9,1430.9,1444.8,1458.7,1474.4,1491.3,1513.4,1522.5,1537,1547.2,1557.4,1568.1,1577.8,1586,1595.9,1603.8,1611.6,1618.4,1622.9,1621.3,1624.6,1627.5,1631,1635.5,1640,1645.7,1658.3,1665.3,1675.7,1687.9,1698.5,1703.7,1710,1713.5,1715.6,1716.1,1714,1711.6,1710.6,1716.2,1719.4,1724,1728.9,1729.8,1736.4,1745.1,1753.2,1759.1,1764.8,1767,1765.2,1760.1,1756,1757.2,1752.9,1745.3,1745.2,1746.7,1751.1,1755.9,1760.3,1763.6,1766,1768.2,1771.4,1780.9,1774.5,1775.2,1772.1,1769.7,1769.4,1767,1767,1764.8,1762.6,1762.7,1765.3,1765.8,1765.7,1759.1,1757.7,1762.9,1762.4,1759.5,1758.4,1750.7,1756.4,1758,1759.6,1761.6,1763.1,1757.5,1758,1756.5,1753.2,1751.3,1747.3,1745,1739.7,1741.1,1736.9,1731.7,1728.9,1720.7,1719.4,1719.3,1721.4,1722,1722.5,1723.1,1720.5,1725.1,1721.5,1716.7,1710.1,1695.7,1685.9,1676.9,1670.6,1663.1,1657.5,1650.4,1643.7,1640.2,1646.1,1645,1644.5,1632.3,1637.2,1636,1635.6,1633.1,1628.4,1623.6,1617.5,1609.9,1605.3,1597.2,1587.5,1572.9,1567.9,1556.5,1541.9,1532.1,1531.5,1517.9,1516.2,1509.5,1504.5,1498.8,1487.4,1488.2,1481.5,1475.7,1470.1,1456.5,1456.5,1448.6,1441.2,1434.7,1429.6,1421.5,1409.3,1401.6,1393,1383.8,1375.3,1365.2,1354.7,1343.9,1336.6,1326.2,1314.3,1303.3,1288.7,1278.3,1268,1259.2,1250.7,1240.8,1234.6,1225,1216.9,1214.8,1208.8,1201.5,1190.3,1182.6,1174.8,1165.7,1156.5,1146.3,1135.1,1123.8,1111.2,1100.5,1092.7,1076,1060.8,1053.3,1042.9,1033.4,1023.6,1014.3,1005.5,996.76,988.61,980.57,973.9,967.15,956.53,949.73,942.8,936.46,929.9,922.21,919.56,912.26,903.22,895.3,885.48,876.24,862.03,852.22,842.89,833.31,824.07,815.67,808.64,801.06,797.21,789.98,783.68,773.95,766.87,760.02,753.32,746.64,741.26,734.32,728.3,722.16,716.38,711.18,707.72,701.26,696.3,690.72,685.04,679.82,674.29,667.81,661.55,654.39,647.76,641.45,636.54,627.69,620.83,614.49,607.71,601.94,595.01,588.91,582.95,576.82,570.78,564.8,558.47,552.6,546.73,538.84,534.74,528.08,522.53,518.41,513.46,508.38,503.28,498.91,494.25,489.44,484.96,480.24,474.74,470.13,464.87,459,453.12,447.26,440.63,434.98,428.17,422.1,416.37,410.24,403.89,398.29,392.03,386.56,381,375.12,369.31,364.77,359.41,354.48,350.14,345.37,341.13,336.95,332.84,329.04,325.31,321.51,317.99,314.67,311.11,307.22,303.83,299.82,295.93,292.38,288.36,284.33,280.3,276,271.71,267.61,263.14,258.61,254.08,249.53,245.56,241.54,237.59,233.78,230.14,226.15,222.76,219.14,215.49,212.21,208.79,205.18,201.88,198.13,194.71,191.22,187.6,184.06,180.7,177.28,173.89,170.55,167.3,164.06,160.51,157.06,153.69,150.35,147.27,143.8,140.93,137.74,134.69,131.73,128.66,125.99,123.21,120.46,117.58,115.01,112.34,109.81,107.31,104.82,102.54,100.17,97.978,95.846,93.559,91.483,89.464,87.299,85.21,83.027,80.965,79.118,76.985,75.01,73.358,71.894,70.651
0.9859,1.1045,1.1801,1.2438,1.3065,1.4116,1.4726,1.4979,1.5456,1.6233,1.6593,1.7333,1.8217,1.8675,1.9025,1.9618,2.0209,2.1112,2.1233,2.1567,2.1669,2.2672,2.3055,2.3037,2.3299,2.5035,2.4724,2.501,2.5544,2.5664,2.6158,2.5919,2.7062,2.7323,2.7752,2.7708,2.834,2.9346,3.0342,3.1174,3.1827,3.3228,3.486,3.6674,3.8818,4.1833,4.5882,5.1549,5.7484,6.6361,7.7816,9.0094,10.529,12.557,14.971,17.58,20.465,23.579,27.034,30.322,33.475,37.151,40.745,44.46,47.731,51.606,55.886,59.828,63.814,67.316,71.801,75.688,79.769,83.716,87.489,91.416,95.2,99.293,103.7,108.13,112.68,117.2,122.07,126.88,132.59,137.53,142.56,148,153.27,159.18,164.79,170.74,176.74,182.57,188.69,195.78,201.47,209.2,216.2,221.69,228.49,235.78,242.21,249.24,256.59,264.26,272.23,280.35,288.91,296.94,305.23,312.96,320.78,328.91,337.3,346.17,355,364.76,374.48,386.13,396.24,406.47,415.85,423.13,432.38,441.89,452.52,463.92,475.11,486.38,498.63,508.22,517.75,527.51,537.23,545.39,555.78,566.5,577.51,588.66,598.97,609.51,619.51,628.43,638.59,651.09,660.63,668.4,678.63,688.72,700.13,712.42,723.43,735.39,746.35,756.84,766.69,776.65,790.11,795.69,807.96,823.99,837.58,851.19,863.95,873.48,887.66,897.39,906.87,915.62,924.96,932.37,943.49,954.85,966.56,979.27,989.71,999.44,1008.2,1015.8,1023.9,1035.6,1043.2,1045.2,1051.9,1059.2,1066.8,1074.3,1081.5,1089.3,1096.3,1103.3,1110.9,1118.2,1125.6,1126.8,1131.7,1141.7,1147.5,1153.3,1156.3,1169.8,1179.3,1189.8,1200.1,1210.4,1219.7,1223.2,1229.9,1236.5,1244,1251,1260.9,1272.3,1284.7,1304.1,1321.8,1338.3,1355.5,1366.4,1381.1,1395.3,1408.9,1422,1436.5,1450.5,1464.7,1479.7,1496.8,1519.2,1528.5,1543,1553.5,1563.6,1574.1,1583.7,1592.1,1602,1609.6,1617.1,1624.7,1628.9,1627.7,1630.5,1633.6,1637.1,1640.9,1646.1,1651.5,1663.9,1671.4,1682,1693.9,1704.5,1709.4,1716.4,1720,1721.6,1722,1719.7,1717.9,1716.4,1721.9,1724.6,1730.1,1734.8,1735.4,1743.1,1750.7,1759.1,1765.2,1770.8,1773,1771.6,1765.8,1761.6,1762.9,1758.4,1750.9,1750.8,1751.9,1757,1761.9,1766.2,1769.5,1771.7,1774,1777.5,1786.5,1780.8,1780.8,1778.3,1775.6,1775.2,1773.5,1772,1771,1768.8,1768.3,1771.2,1772,1771.6,1765.1,1763.9,1769,1768,1765.5,1764,1756.5,1762.2,1763.5,1765.4,1767.3,1768.6,1763.9,1763.7,1762.6,1759.5,1757,1753.1,1751,1745.7,1747.4,1743.1,1738,1735,1726.6,1725.5,1725.4,1728,1728.5,1729.3,1729.4,1726.8,1731.9,1727.8,1723.1,1716.8,1701.9,1692.1,1683.3,1677.6,1669.1,1663.3,1656.6,1650.3,1646.8,1652.2,1651,1650.7,1638.9,1643.3,1642.5,1641.9,1639.3,1635.3,1630.6,1623.5,1616.7,1612,1603.6,1594.3,1579.8,1574.4,1563.6,1547.9,1539,1538.1,1524.5,1522.9,1516.4,1510.9,1505.7,1494,1494.6,1487.9,1482.3,1477,1463.3,1462.5,1455.5,1447.6,1441,1435.9,1427.8,1415.5,1407.5,1399.3,1389.9,1381.5,1371.5,1361.1,1350,1342.5,1332.3,1320.8,1309,1294.4,1284,1274.1,1265.2,1256.4,1246.9,1240.3,1230.7,1222.6,1221,1214.6,1207.1,1195.2,1188.4,1179.8,1170.8,1161.6,1151.4,1140.1,1129.5,1116.5,1105.5,1097.8,1080.9,1065.7,1058.4,1047.9,1038.5,1029,1019.5,1010.7,1001.3,993.43,985.51,978.59,972.06,961.51,954.33,947.59,941.37,934.89,927.14,924.26,916.83,908.19,900.01,890.05,880.81,866.4,856.6,847.16,837.33,828.34,819.67,812.46,804.9,801.63,794.35,787.77,777.56,770.98,763.87,757.05,750.5,744.69,738.05,731.75,725.97,720.15,715.17,711.71,704.95,699.82,694.57,688.83,683.69,677.78,671.51,665.17,657.76,650.97,644.79,639.85,630.97,624.16,617.87,611.1,605.12,598.33,592.3,585.88,580.03,573.8,567.8,561.31,555.51,549.77,541.74,537.61,531.1,525.45,521.43,516.85,511.81,506.67,501.74,496.9,492.4,487.58,482.91,477.29,472.58,467.37,461.56,455.81,449.83,443.05,437.24,430.8,424.21,418.5,412.14,405.99,400.33,394.48,388.39,382.81,377.27,371.5,366.72,361.6,356.35,351.68,346.87,342.52,338.58,334.31,330.85,326.88,323.16,319.49,315.95,312.84,308.99,305.37,301.22,297.5,293.78,289.56,285.86,281.54,277.34,273.04,269,264.41,259.99,255.45,250.96,246.82,242.88,238.74,235.22,231.45,227.38,223.73,220.13,216.69,213.05,209.76,206.34,202.76,199.07,195.74,192.5,188.71,185.19,181.73,178.27,175.04,171.59,168.31,164.92,161.5,158.05,154.66,151.2,148.05,144.78,141.68,138.51,135.51,132.53,129.47,126.47,123.77,121.07,118.3,115.69,112.94,110.43,107.89,105.5,103.13,100.84,98.611,96.38,94.195,92.103,89.91,87.927,85.741,83.654,81.566,79.528,77.429,75.504,73.862,72.317,71.055
0.95167,1.0886,1.1419,1.2216,1.3014,1.3771,1.5073,1.5275,1.5488,1.6068,1.6548,1.7058,1.7781,1.8053,1.9091,1.968,1.997,2.0549,2.131,2.1537,2.2431,2.2969,2.257,2.3997,2.4144,2.4701,2.4493,2.4829,2.5305,2.5567,2.6084,2.6572,2.7353,2.7179,2.7355,2.7674,2.8335,2.8959,2.9677,3.0612,3.1583,3.3342,3.3828,3.571,3.8651,4.1593,4.514,5.0835,5.7911,6.5057,7.6583,8.9595,10.406,12.275,14.575,17.131,20.038,23.132,26.52,29.681,32.84,36.398,39.882,43.652,47.008,50.614,54.88,58.72,62.672,66.094,70.462,74.408,78.29,82.223,86.01,89.876,93.666,97.765,101.92,106.25,110.61,115.29,119.96,124.58,130.1,135.37,140.11,145.29,150.85,156.34,162.19,168.02,173.82,179.51,185.34,192.73,198.31,206.03,212.98,218.12,225.15,232.24,238.7,245.51,252.88,260.36,268.13,276.29,284.6,292.75,300.91,308.27,316.17,324.41,332.64,341.31,350.1,359.67,369.25,380.86,390.73,401.22,410.43,417.81,426.88,436.14,446.63,457.76,469.26,480.62,492.64,502.04,511.64,521.15,530.94,539.14,549.84,560.28,571.41,582.67,592.89,603.38,613.38,622.78,632.75,645.13,654.87,662.26,672.6,682.93,694.56,706.26,717.77,729.41,740.64,751.21,761.08,771.13,784.63,790.24,802.73,818.42,832.21,845.87,858.46,868.22,882.03,891.84,901.29,910.29,920.02,927.34,938.39,949.57,961.5,974.65,985.33,994.77,1003.4,1011.4,1019.4,1031.5,1038.5,1040.9,1047.6,1054.9,1062.6,1070.3,1077.4,1085.3,1091.7,1099.5,1107.2,1114.3,1121.4,1122.9,1127.9,1138.4,1143.7,1149.1,1153.3,1166.2,1175.8,1185.8,1196.2,1206.7,1216,1219.7,1226.8,1233.1,1240.5,1247.7,1257.6,1268.9,1281.2,1300.9,1318,1334.6,1352,1362.8,1377.1,1391.5,1405.2,1418.5,1432.9,1446.8,1461,1476.4,1493.6,1516.1,1525.3,1539.7,1550.2,1560.2,1571.4,1580.6,1589.3,1599,1606.9,1614.7,1622,1626.3,1624.9,1627.8,1631.2,1634.7,1638.6,1643.7,1649.4,1661.4,1668.8,1679.3,1691.4,1702.7,1706.9,1714,1717.4,1719.4,1719.4,1717.7,1715.9,1714.3,1720.5,1723.2,1728.5,1733.5,1734,1741.4,1749.4,1757.6,1763.4,1768.9,1771.3,1770.1,1764.5,1760.3,1761.3,1757,1749.6,1750.2,1751.3,1755.6,1760.7,1765.3,1768,1770.4,1772.9,1776.1,1785.6,1779.6,1780.1,1777.5,1774.9,1775,1772.4,1771.5,1770.2,1768.2,1767.5,1770.5,1770.3,1770.7,1764.4,1762.7,1768.4,1767.6,1764.8,1763.6,1756,1762,1763.4,1765,1766.9,1768.4,1763.3,1763.4,1762.5,1759.2,1757.3,1753.2,1750.8,1745.8,1747.5,1742.8,1737.8,1735.2,1726.7,1725.6,1725.4,1727.9,1727.9,1728.8,1729.4,1727.1,1731.9,1728.4,1723.3,1717.2,1702.1,1692.4,1683.8,1677.2,1669.9,1663.4,1656.8,1650,1646.4,1652.1,1651.4,1650.7,1639,1643.3,1642.5,1642.3,1639.9,1635.3,1630.4,1623.6,1616.7,1612.2,1604,1594.4,1579.6,1574.7,1563.3,1547.9,1538.8,1538.1,1524.7,1522.7,1515.9,1511,1505.3,1494,1494.4,1488.2,1482.2,1476.4,1463,1462.5,1455.4,1447.8,1440.9,1435.8,1428.1,1415.5,1407.8,1399.4,1389.8,1381.8,1371.3,1361,1350.4,1342.6,1331.7,1320.3,1308.9,1294.4,1283.8,1273.8,1265,1256.2,1246.5,1240,1230.7,1222.6,1220.6,1214.2,1207.1,1195.6,1188.1,1180,1170.9,1161.7,1151.3,1140.5,1129.2,1116.4,1105.6,1097.9,1080.9,1065.7,1058.5,1047.9,1039,1028.7,1019.3,1010.5,1001.4,993.26,985.1,978.57,971.97,961.21,954.32,947.55,941.14,934.79,927.1,923.86,916.77,907.97,899.61,890.23,880.62,866.27,856.56,847.01,837.45,828.17,819.38,812.3,804.84,801.42,793.99,787.74,777.45,770.88,763.74,756.92,750.47,744.9,737.85,731.8,725.73,719.79,715.05,711.6,704.82,699.76,694.22,688.63,683.06,677.82,671.08,664.8,657.56,650.98,644.62,639.67,630.83,624.1,617.38,610.82,604.86,598.31,591.99,585.6,579.52,573.66,567.69,561.21,555.22,549.61,541.83,537.65,531.02,525.29,521.14,516.47,511.11,506.32,501.7,496.71,492.26,487.2,482.74,477.16,472.31,467.23,461.27,455.48,449.29,442.7,437.02,430.45,424.04,417.9,411.86,405.81,400.2,394.26,388.31,382.65,377.09,371.51,366.3,361.25,356.15,351.64,346.96,342.49,338.51,334.29,330.58,326.73,322.94,319.31,315.83,312.29,308.65,305.16,300.89,297.11,293.73,289.25,285.49,281.21,276.98,272.85,268.71,264.03,259.62,255.13,250.34,246.58,242.16,238.45,234.79,231.18,227.05,223.55,219.98,216.51,213.03,209.56,206.23,202.72,199.04,195.67,192.24,188.49,184.93,181.45,178.07,174.72,171.58,168.02,164.68,161.33,157.7,154.42,150.97,147.83,144.6,141.39,138.43,135.25,132.37,129.29,126.38,123.54,120.79,118.04,115.42,112.71,110.19,107.69,105.33,102.97,100.61,98.406,95.977,94.1,91.84,89.704,87.657,85.552,83.438,81.426,79.305,77.245,75.471,73.811,72.238,70.991
0.98708,1.0874,1.1635,1.2428,1.314,1.3815,1.4553,1.5468,1.5951,1.5884,1.666,1.7092,1.7779,1.8401,1.9199,1.9583,2.008,2.0444,2.1073,2.1456,2.227,2.2133,2.2595,2.3367,2.4163,2.4842,2.4441,2.4656,2.4813,2.5432,2.5978,2.5902,2.6704,2.7016,2.7232,2.7376,2.7915,2.8844,2.9603,3.0403,3.1439,3.257,3.3815,3.6208,3.8269,4.2072,4.4781,5.0459,5.6788,6.4731,7.6232,8.7383,10.35,12.289,14.4,16.973,19.864,22.863,26.293,29.44,32.554,36.025,39.5,43.209,46.457,50.142,54.253,58.076,62.017,65.315,69.719,73.67,77.546,81.583,85.211,89.14,92.876,96.755,101,105.29,109.64,114.06,118.87,123.58,129.03,133.98,138.91,144.04,149.36,155.01,160.66,166.44,172.25,177.73,183.67,190.74,196.43,204.09,210.71,216.07,222.85,230.17,236.52,243.26,250.49,257.88,265.6,273.77,282.09,289.91,297.96,305.36,313.4,321.46,329.57,338.24,347.11,356.21,365.86,377.12,387.14,397.16,406.47,413.9,422.64,432.04,442.39,453.23,464.8,475.93,488.04,497.29,506.72,516.25,526.32,534.32,544.9,555.5,566.58,577.81,587.69,598.39,608.36,617.61,627.79,640.15,649.84,657.14,667.52,677.87,689.57,701.55,712.6,724.74,735.82,746.27,756.13,766.52,779.75,785.44,797.58,813.63,827.4,840.71,853.3,863.24,876.99,886.67,896.05,905,914.15,921.64,932.8,944.03,956.27,969.26,979.44,988.87,997.54,1005.7,1013.6,1025.4,1032.9,1034.6,1041.3,1048.6,1056.3,1063.8,1070.8,1078.4,1085.3,1092.9,1100.3,1107.5,1114.6,1116.3,1121.2,1131,1136.6,1142.6,1145.9,1158.8,1168.7,1178.5,1188.9,1199.4,1208.6,1212.2,1218.8,1225.2,1233.1,1239.5,1249.7,1261,1273.1,1292.9,1309.7,1326.2,1343.5,1354,1368.6,1382.7,1396.2,1409.6,1423.8,1437.7,1451.4,1467,1484,1506,1515.2,1529.3,1539.9,1550,1560.6,1569.8,1578.6,1588.5,1595.9,1603.7,1611.2,1615.2,1614.1,1616.7,1619.8,1623.2,1627.7,1632.1,1638,1650.3,1657.6,1667.8,1680.4,1690.8,1695.9,1702.3,1705.9,1707.7,1708.3,1705.8,1703.9,1702.8,1708.9,1711.5,1716.4,1721.4,1721.6,1729.1,1737.3,1745.6,1751.2,1756.3,1759.3,1758,1752.3,1747.9,1749.4,1744.4,1737.3,1737.8,1738.4,1743,1748.3,1752.7,1755.9,1758.2,1760.7,1763.9,1772.8,1767,1767.4,1765,1762,1762.1,1759.9,1759.1,1757.5,1755.3,1755.4,1758.2,1758.3,1758.8,1751.7,1750,1755.9,1754.5,1752.3,1750.9,1743,1749.1,1750.6,1752.2,1753.9,1755.5,1750.4,1750.8,1749.4,1746.3,1744.1,1740,1738.2,1732.8,1734.9,1730.1,1724.9,1722.5,1714,1713.1,1713,1715.4,1716.1,1716.4,1716.9,1714,1719.3,1716,1710.7,1704.6,1689.7,1680.3,1671.7,1665.3,1657.3,1651.5,1644.8,1638.1,1634.5,1640.8,1639.1,1638.9,1627.2,1631.4,1630.5,1630.3,1628.1,1623.7,1618.7,1611.7,1604.9,1600.4,1592,1582.8,1568.2,1562.8,1552,1536.4,1527.7,1526.8,1512.7,1511.6,1505,1499.7,1494.2,1483.2,1483.9,1477.3,1471.2,1465.6,1452.4,1451.7,1444.5,1437.2,1430,1425.3,1417.2,1405.2,1396.9,1388.9,1379.4,1371.1,1360.8,1350.5,1339.6,1332.7,1321.8,1310.6,1299.4,1284.8,1274.4,1264.3,1255.8,1247.3,1237.6,1231.2,1221.2,1213.8,1211.5,1205.2,1197.9,1186.7,1179.3,1171.5,1162.8,1153.1,1143.2,1132.1,1121.3,1108.3,1097.4,1090.1,1072.9,1058.1,1050.5,1040.2,1030.5,1021.1,1011.4,1003.2,994.17,986.14,978.03,971.49,964.91,954.05,947.21,940.58,934.2,927.68,920.2,916.94,909.72,901.06,892.89,883.3,874.19,859.95,850.11,840.72,831.13,822.06,813.64,806.57,798.92,795.47,788.25,781.73,771.86,765.24,758.26,751.61,744.65,739.46,732.42,726.47,720.47,714.71,709.53,706.44,699.94,694.54,689.1,683.37,678.24,672.59,666.42,659.83,652.85,646.38,640.17,635.03,626.13,619.6,613.13,606.44,600.46,593.63,587.7,581.33,575.32,569.26,563.47,556.85,551.28,545.49,537.61,533.42,527,521.35,517.35,512.34,506.97,502.17,497.57,492.86,488.48,483.38,479.13,473.47,468.75,463.47,457.6,451.91,445.89,439.36,433.59,427.11,420.8,414.77,408.77,402.8,396.97,391.19,385.4,379.84,373.94,368.41,363.47,358.46,353.34,348.92,344.12,339.79,335.91,331.69,328,324.18,320.49,316.85,313.4,309.82,306.09,302.68,298.51,294.83,291.23,287,282.96,278.93,274.78,270.68,266.58,262.2,257.78,253.12,248.59,244.69,240.62,236.6,232.86,229.21,225.36,221.85,218.38,214.69,211.31,207.73,204.31,201.07,197.54,194.05,190.66,187.12,183.34,180.01,176.61,173.21,170.08,166.64,163.27,160.06,156.64,153.17,149.79,146.55,143.5,140.24,137.1,134.17,131.1,128.16,125.31,122.56,119.77,117.08,114.49,111.84,109.29,106.72,104.31,102.12,99.699,97.5,95.334,93.186,90.938,89.016,86.726,84.722,82.67,80.642,78.633,76.544,74.687,73.015,71.513,70.35
0.95924,1.0625,1.1602,1.2139,1.2944,1.3868,1.4735,1.5158,1.5608,1.6019,1.6381,1.7119,1.767,1.812,1.9088,1.9876,2.0068,2.0705,2.1378,2.1492,2.1992,2.2308,2.2838,2.363,2.3342,2.4422,2.4347,2.4997,2.5051,2.566,2.5375,2.5894,2.7116,2.7344,2.7326,2.775,2.8118,2.9265,2.9835,3.0199,3.1258,3.312,3.45,3.6201,3.8896,4.103,4.4891,4.9992,5.6147,6.3762,7.4117,8.5083,9.9643,11.853,14.027,16.468,19.34,22.283,25.456,28.652,31.777,34.968,38.424,41.993,45.321,49.014,52.745,56.64,60.472,63.76,68.178,72.022,75.949,79.892,83.495,87.246,91.002,94.853,98.941,103.31,107.5,112.05,116.28,121.05,126.49,131.19,136.16,141.47,146.61,152.07,157.72,163.47,169.04,174.69,180.33,187.38,192.77,200.55,207.29,212.49,219.15,226.38,232.6,239.36,246.42,253.73,261.56,269.43,277.66,285.62,293.75,300.59,308.66,316.65,325.22,333.47,341.98,351.24,360.52,371.76,381.43,391.56,401,408.51,417.34,426.42,436.52,447.29,458.89,469.96,482.15,491.52,500.65,510.11,520.1,527.76,538.75,549.23,560.48,571.54,581.84,592.17,602.17,611.84,621.76,633.94,643.72,651.53,661.47,672.18,683.44,695.35,706.86,718.58,729.67,740.44,750.36,760.71,774.02,779.73,791.92,807.7,821.51,835.08,847.79,857.67,871.84,881.32,890.56,899.75,909.05,916.63,927.63,939.26,951.13,964.07,974.65,984.53,993.22,1001.3,1009.2,1021,1028.7,1030.6,1037.1,1044.4,1052.7,1059.9,1067.2,1075,1081.5,1089.3,1096.9,1104,1111.6,1112.6,1117.9,1128.2,1133.8,1139.3,1143.2,1156.1,1165.7,1175.9,1186.3,1196.5,1205.5,1209.5,1216.4,1222.9,1229.9,1237.4,1246.9,1258.1,1270.2,1290,1307,1323.4,1340.3,1351,1365.8,1379.9,1393.7,1406.9,1421.1,1435.1,1448.6,1464.5,1481.5,1503.7,1513.4,1526.8,1537.1,1547.4,1558.3,1568.2,1576.5,1586.5,1594.1,1601.7,1609.3,1613.2,1612.2,1615.2,1618.7,1622.3,1626.4,1631.3,1636.9,1649,1656.2,1666.9,1678.3,1689.4,1694.3,1700.9,1704.9,1706.6,1707.3,1705.2,1703.3,1702.1,1708.2,1711.1,1715.9,1721,1721.4,1728.8,1736.9,1745.2,1751.6,1756.6,1759.1,1757.7,1752.7,1748.3,1749.7,1745.4,1738.2,1738.3,1739.5,1744.1,1748.9,1753.4,1756.5,1759,1761.3,1764.7,1773.5,1767.9,1768.6,1766.4,1763.6,1763,1761,1760.6,1759.3,1757.2,1756.9,1759.1,1759.7,1759.6,1753,1751.7,1757.3,1756.1,1753.8,1752.3,1744.6,1750.7,1751.8,1753.9,1755.7,1757,1751.9,1751.9,1750.8,1748.4,1746.1,1742.2,1739.8,1735.1,1736.8,1732.2,1727.2,1724.5,1715.5,1714.3,1714,1716.3,1717.5,1717.8,1718.2,1715.9,1720.6,1717.5,1712.8,1706.6,1691.3,1681.7,1673.3,1666.3,1659.2,1652.7,1646.2,1639.8,1636.2,1642,1640.8,1640.2,1628.5,1633.2,1632.1,1631.9,1629.3,1625.3,1620.2,1614,1606.6,1602.2,1593.4,1583.9,1569.7,1564.4,1552.9,1538.1,1528.9,1528,1514.6,1512.6,1506.2,1501.3,1495.4,1484.1,1484.7,1478.2,1472.1,1466.7,1453.5,1452.5,1445.5,1437.8,1431.2,1426.9,1418.5,1406,1398.1,1390.3,1380.8,1371.9,1362.2,1351.6,1341.2,1333.2,1323,1311.4,1300,1285.6,1275.4,1265.7,1256.3,1247.9,1238.4,1231.9,1222.8,1214.9,1212.6,1206.3,1199.4,1187.9,1180.4,1172.5,1163.5,1153.8,1144.1,1133.2,1121.8,1109.3,1098.5,1090.8,1073.9,1058.9,1051.5,1040.9,1031.4,1021.8,1012.1,1003.9,994.69,986.94,978.75,972.15,965.38,954.91,947.56,940.58,934.54,928.06,920.62,917.65,909.96,901.6,893.6,883.51,874.7,860.18,850.81,841.25,831.78,822.28,813.98,807.04,799.2,795.81,788.96,782.2,772.27,765.69,758.68,751.97,745.17,739.75,732.96,726.82,720.96,714.89,709.99,706.42,699.99,694.98,689.22,683.57,678.4,672.82,666.47,660.33,653.19,646.29,640.08,635.21,626.17,619.7,613.24,606.54,600.71,593.85,587.87,581.57,575.75,569.49,563.38,557.35,551.19,545.56,537.83,533.64,526.85,521.36,517.26,512.26,507.2,502.31,497.6,492.94,488.29,483.81,478.99,473.78,468.74,463.6,457.92,452.06,445.99,439.55,433.94,427.3,421.08,415.12,408.92,402.94,397.21,391.37,385.53,379.96,374.16,368.43,363.66,358.6,353.49,349.14,344.35,339.96,336.21,331.94,328.07,324.45,320.45,316.87,313.65,310.07,306.26,302.74,298.81,295.04,291.23,286.99,283.19,279.27,274.74,270.91,266.61,262.26,257.86,253.2,248.87,244.79,240.71,236.77,233.07,229.45,225.54,222.02,218.48,214.82,211.48,208.11,204.6,201.13,197.63,194.17,190.71,187.2,183.59,180.24,176.65,173.42,170.22,166.87,163.5,160.01,156.63,153.18,150.08,146.88,143.57,140.4,137.23,134.28,131.33,128.32,125.46,122.7,119.96,117.23,114.67,111.94,109.34,106.79,104.48,102.13,99.846,97.554,95.357,93.318,91.128,89.012,86.881,84.801,82.702,80.766,78.66,76.665,74.78,73.122,71.642,70.357
0.96181,1.0475,1.1359,1.249,1.2683,1.3742,1.4242,1.4998,1.5136,1.5934,1.6699,1.7017,1.7422,1.8202,1.8795,1.9457,2.0336,2.0858,2.1424,2.1892,2.2362,2.248,2.256,2.3478,2.3465,2.3919,2.4623,2.4339,2.519,2.5918,2.6076,2.5851,2.6393,2.6822,2.6999,2.7588,2.8274,2.8676,3.0028,3.0786,3.1492,3.3069,3.4285,3.6108,3.8691,4.1283,4.5829,5.0665,5.7138,6.5325,7.5987,8.6919,10.206,12.045,14.289,16.861,19.69,22.681,25.826,28.927,32.272,35.618,39.172,42.749,46.053,49.624,53.64,57.547,61.389,64.823,69.305,73.146,76.958,80.935,84.64,88.484,92.293,96.157,100.3,104.65,108.92,113.48,118.15,122.63,128.33,133.33,138.14,143.3,148.62,154.04,159.81,165.58,171.14,176.89,182.77,189.74,195.27,203.14,209.84,215.06,221.84,228.89,235.34,242.1,249.32,256.67,264.36,272.47,280.93,288.88,296.88,303.94,312.08,320.2,328.54,336.85,345.67,355.09,364.35,375.75,385.52,395.53,404.99,412.57,421.54,430.82,440.94,451.73,463.24,474.44,486.45,495.9,505.37,514.54,524.33,532.59,543.36,553.88,564.93,575.79,586.39,596.55,606.64,615.88,625.69,638.18,647.84,655.24,665.27,675.66,687.3,699.09,710.16,722.42,733.42,743.86,753.69,763.68,777.02,782.64,794.74,810.72,824.04,837.51,850.26,859.97,874.05,883.52,892.65,901.81,910.96,918.09,929.43,940.74,952.32,965.46,975.87,985.82,994.07,1002.2,1010.5,1022.2,1029.6,1031.4,1038,1045.1,1053.3,1060.5,1067.7,1075.4,1082,1089.5,1097.2,1104.4,1111.8,1113.3,1118.3,1128.1,1133.6,1139.3,1142.9,1156,1165.8,1175.7,1186.2,1196.3,1205.2,1209.5,1215.9,1222.4,1229.4,1236.8,1246.5,1257.6,1269.4,1289.3,1306,1322.6,1339.4,1350,1364.6,1378.6,1392.3,1405.7,1420.2,1433.5,1448,1462.7,1480,1502.1,1511.6,1525.8,1535.5,1546,1556.4,1566.1,1574.5,1584.6,1592.1,1599.6,1607.1,1611.3,1609.7,1612.7,1616.6,1619.9,1624.4,1628.5,1634.4,1646.7,1653.9,1664,1676,1687.1,1692,1698.4,1702.1,1704.1,1704.7,1702.3,1700.8,1699.5,1705.2,1708.2,1713,1717.9,1718.4,1725.5,1733.8,1742,1748,1753.3,1755.9,1754.7,1749.4,1745,1746.1,1742,1734.5,1734.7,1736.1,1740.5,1745.2,1749.6,1752.6,1754.8,1757.3,1760.3,1769.6,1763.9,1764.5,1761.9,1759.4,1759.2,1756.9,1756.4,1755.1,1752.7,1752.5,1754.5,1755.3,1755.1,1748.7,1747.4,1752.6,1751.7,1749.3,1748.1,1740.3,1746.6,1747.6,1749.9,1751.3,1752.7,1747.4,1747.3,1746.3,1742.8,1741.3,1737.3,1734.7,1729.8,1732.1,1727.3,1721.9,1719.7,1710.3,1708.9,1709.1,1711.7,1712.5,1712.5,1713.4,1710.7,1715.4,1712.4,1707.4,1701,1686.5,1676.4,1668.1,1661.5,1654.2,1648.1,1641.1,1635.1,1631,1637,1635.5,1634.7,1623.3,1627.9,1626.6,1626.6,1624.3,1619.9,1614.9,1608.2,1601,1596.4,1588.2,1578.7,1563.7,1559.1,1547.8,1532.5,1523.6,1523.3,1509.9,1507.8,1500.9,1495.9,1490.6,1479.4,1479.7,1473.2,1467.3,1461.8,1448.8,1448,1440.8,1433.1,1426.2,1421.1,1414,1401.4,1393.4,1385.4,1376,1367.4,1357.7,1347.3,1336.2,1329.1,1318.7,1307.8,1296.2,1281.7,1271.2,1261,1252.6,1244,1234,1227.9,1218.4,1210.8,1208.4,1202.5,1195.1,1184.1,1176.7,1168.6,1159.5,1150.6,1140.2,1129.4,1118,1105.5,1094.3,1086.8,1070,1055.1,1047.3,1037.1,1027.6,1017.8,1008.7,1000.3,991.14,983.15,975.46,968.46,962.06,951.49,944.6,937.65,931.47,924.85,917.14,914.14,907.09,898.42,890.2,880.33,871.63,857.53,847.73,838.5,828.68,819.56,811.36,804.21,796.46,793.24,785.92,779.43,769.92,763.29,756.21,749.48,742.8,737.2,730.36,724.62,718.4,712.35,707.56,704.41,697.92,692.69,687.15,681.14,676.18,670.65,664.4,658.29,650.71,644.27,638.09,632.94,624.19,617.76,610.99,604.61,598.55,591.99,586.08,579.61,573.71,567.49,561.72,555.3,549.58,543.86,536.13,531.58,524.96,519.33,515.33,510.46,505.13,500.51,496.03,491.17,486.68,482.02,477.31,471.94,467.27,461.93,456.35,450.4,444.56,438.08,432.5,425.97,419.59,413.79,407.82,401.58,396.04,390.03,384.41,378.65,372.97,367.38,362.63,357.41,352.57,348.24,343.26,339.21,334.98,331.04,327.23,323.37,319.82,316.01,312.85,309.21,305.45,301.96,297.93,294.36,290.6,286.31,282.53,278.43,274.22,270.15,266,261.53,257.11,252.7,248.05,244.23,239.98,236.11,232.63,228.79,224.89,221.5,217.94,214.3,210.91,207.4,204,200.53,197.03,193.66,190.24,186.65,183.13,179.57,176.26,172.92,169.7,166.49,163.11,159.67,156.31,153.05,149.55,146.27,143.16,140.05,136.95,134.04,130.97,127.95,125.11,122.38,119.77,116.89,114.46,111.7,109.12,106.7,104.26,101.95,99.588,97.364,95.229,93.084,90.985,88.84,86.805,84.69,82.681,80.485,78.534,76.528,74.596,72.968,71.444,70.16
0.95118,1.0422,1.1399,1.2442,1.2849,1.3952,1.4635,1.5388,1.5744,1.5806,1.6807,1.709,1.7442,1.859,1.8926,1.9464,2.017,2.0815,2.1096,2.1882,2.2001,2.2124,2.2914,2.3674,2.3835,2.4346,2.4169,2.4468,2.5428,2.5411,2.6208,2.6053,2.6703,2.6801,2.7636,2.7447,2.7994,2.8608,2.9688,3.061,3.1535,3.254,3.4224,3.6576,3.9024,4.1583,4.5297,5.0457,5.7805,6.5396,7.7233,8.9297,10.53,12.352,14.618,17.264,20.302,23.396,26.635,29.906,33.148,36.602,40.193,43.945,47.281,50.993,55.125,59.048,63.078,66.508,70.877,74.783,78.727,82.71,86.463,90.275,94.13,98.049,102.28,106.59,111,115.52,120.12,124.84,130.69,135.57,140.66,145.68,151.08,156.71,162.38,168.25,174.09,179.92,185.89,192.97,198.72,206.21,213.12,218.28,225.4,232.4,238.96,245.63,252.77,260.55,268.2,276.48,284.92,292.84,301.26,308.3,316.49,324.43,332.95,341.53,350.26,359.61,369.25,380.64,390.66,400.98,410.47,417.59,426.69,435.92,446.45,457.6,469.11,480.19,492.35,501.87,511.58,520.86,530.73,538.79,549.54,559.99,571.18,582.21,592.89,603.2,613.15,622.43,632.58,644.9,654.61,662.09,672.05,682.61,694.57,706.22,717.28,729.45,740.28,751.11,760.96,771.15,784.16,789.7,802.15,818.06,831.63,845.21,857.69,867.46,881.47,891.26,900.64,909.44,918.9,926.19,937.26,948.48,959.93,973.03,983.37,993.06,1001.7,1009.8,1017.5,1029.3,1036.8,1038.9,1045.5,1052.6,1060.5,1067.7,1075,1082.3,1088.9,1096.5,1104.1,1111.3,1118.6,1119.5,1125.1,1134.9,1139.9,1145.9,1149.3,1162.3,1172.1,1181.9,1192.2,1202.5,1211.2,1215.5,1222,1228.7,1236.1,1243.2,1252.5,1263.8,1275.6,1295.4,1312.3,1328.9,1345.8,1356.4,1371.2,1385.5,1399.1,1412.2,1426.8,1440,1454.3,1469.3,1486.9,1508.7,1518.2,1532.1,1542.5,1552.7,1563.2,1572.8,1581,1591.3,1599.2,1606.6,1613.7,1617.9,1616.6,1619.6,1622.9,1626.1,1630.5,1635.1,1640.6,1652.7,1659.9,1670.4,1682.5,1693.2,1697.9,1704.9,1708.4,1709.9,1710.7,1708,1706.6,1705.2,1711.5,1713.7,1718.6,1723.6,1724.4,1731,1739.6,1747.3,1753.4,1758.5,1761.4,1759.9,1753.8,1749.8,1751.1,1747.1,1739.7,1739.2,1740.6,1745.3,1750.3,1754.1,1757.5,1760.2,1762.2,1765.2,1774.5,1768.8,1769.3,1766.6,1763.7,1763.5,1761,1760.4,1759.2,1756.7,1756.8,1758.9,1759.4,1759.2,1752.9,1751.6,1757,1755.6,1752.8,1751.8,1744.7,1750.3,1751.4,1753.3,1754.8,1756.3,1751.5,1751,1750.3,1747.2,1745.2,1741,1738.6,1733.9,1735.2,1730.8,1725.5,1723.2,1714,1712.9,1712.4,1715.1,1715.4,1716,1716.1,1714.1,1718.8,1715.6,1710.7,1704,1688.9,1679.4,1671,1664.4,1657.4,1650.7,1644.2,1637.5,1633.8,1639.6,1638.3,1637.8,1626.2,1630.7,1629.9,1629.6,1626.9,1622.7,1618,1611.4,1604.1,1599.7,1591.4,1581.5,1566.7,1562,1550.9,1535.7,1526.9,1525.6,1512.1,1510.5,1503.6,1498.8,1493.4,1482.2,1482.2,1475.9,1469.8,1464.6,1451.6,1450.5,1444.2,1435.8,1429.4,1424,1416.5,1404.1,1396.1,1387.8,1378.5,1370.3,1360.3,1350.2,1338.8,1331.6,1321,1309.7,1298.5,1284,1273.4,1263.6,1255.2,1246.3,1236.8,1230.3,1220.6,1212.7,1210.9,1204.6,1197.4,1186.1,1178.7,1170.7,1161.6,1152.4,1142.4,1131.7,1120.3,1107.7,1096.7,1089.2,1072.5,1057.6,1050.1,1039.3,1030,1020.6,1010.8,1002.3,993.43,985.24,977.23,970.55,964.08,953.45,946.45,939.62,933.55,927.19,919.36,916.52,909.18,900.45,892.17,882.47,873.09,859.36,849.63,840.24,830.69,821.51,812.96,805.78,798.14,795,787.69,781.19,771.13,764.77,757.81,750.91,744.19,738.6,731.76,725.81,719.8,714,708.97,705.67,699.07,693.96,688.53,682.84,677.49,672.25,665.82,659.64,652.51,645.6,639.41,634.52,625.63,619.11,612.43,605.91,600.23,593.27,587.36,580.99,574.91,569.09,563.01,556.69,550.8,545.01,537.3,533.21,526.64,520.88,516.73,511.65,506.52,501.76,497.15,492.21,487.78,483.07,478.39,473.06,468.06,462.99,457.52,451.62,445.64,438.94,433.41,426.94,420.79,414.83,408.63,402.73,397.12,391.14,385.29,379.64,373.92,368.32,363.53,358.28,353.38,349.08,344.02,339.92,335.84,331.62,328.16,324.07,320.33,316.79,313.55,309.91,306.07,302.55,298.55,294.83,291.05,286.92,282.94,279.06,274.55,270.59,266.48,262,257.65,253.09,248.55,244.51,240.46,236.46,232.78,229.13,225.35,221.75,218.13,214.65,211.26,207.86,204.42,200.96,197.52,194.07,190.75,186.99,183.51,180.06,176.62,173.35,170,166.7,163.38,159.92,156.44,153.07,149.94,146.65,143.39,140.29,137.25,134.12,131.31,128.31,125.41,122.62,119.92,117.19,114.64,111.98,109.35,106.97,104.55,102.24,99.857,97.654,95.338,93.259,91.099,89.127,86.951,84.883,82.77,80.706,78.571,76.606,74.826,73.154,71.642,70.382
0.97479,1.0515,1.166,1.2635,1.2976,1.3708,1.464,1.554,1.5517,1.6376,1.6886,1.7412,1.7358,1.8769,1.9265,1.9919,2.0294,2.0515,2.1314,2.1933,2.2755,2.296,2.3643,2.3921,2.413,2.4672,2.4753,2.5454,2.4928,2.5985,2.6664,2.656,2.7588,2.7632,2.8008,2.84,2.913,2.9358,2.9721,3.0703,3.1445,3.2735,3.4332,3.5627,3.7995,4.0774,4.4585,4.9956,5.5576,6.3403,7.4494,8.4751,10.055,11.76,13.942,16.501,19.32,22.279,25.248,28.528,31.567,34.97,38.396,41.874,45.051,48.639,52.457,56.245,59.968,63.36,67.601,71.535,75.197,79.247,82.773,86.478,90.209,94.254,98.284,102.46,106.66,110.99,115.44,119.93,125.39,130.22,135.29,140.12,145.47,150.93,156.31,162.12,167.56,173.1,178.8,185.87,191.34,198.87,205.62,210.57,217.08,224.47,230.72,237.45,244.34,251.46,259.23,267.18,275.41,283.12,291.15,297.89,306.01,313.83,322.34,330.74,339.33,348.29,357.59,368.71,378.29,388.49,397.94,405.42,414.09,423.37,433.51,444.3,455.73,466.44,479.03,488.11,497.5,506.57,516.14,524.59,535.38,546.09,557.22,568.39,578.71,589,598.94,608.93,618.88,631.35,641.24,648.92,659.17,669.62,681.24,693.71,704.7,717.01,728.06,738.81,749.24,759.51,773.03,778.98,791.4,807.45,821.01,834.79,847.67,857.56,871.57,881.61,891.06,900.08,909.93,916.94,928.58,940.09,952,965.68,975.84,986.04,994.49,1002.5,1011,1022.6,1030.5,1032.1,1039.2,1046.5,1054.5,1062,1069.6,1077.1,1084.2,1091.3,1099.3,1106.4,1114.1,1115.3,1120.8,1131,1136.7,1142.3,1145.9,1159.3,1168.9,1179.1,1189.8,1200,1209.2,1213.1,1220,1226.8,1234.1,1241.1,1251.3,1262.6,1274.6,1294.6,1311.8,1328.2,1345.4,1356.1,1371,1385.6,1399.3,1412.8,1426.9,1440.5,1454.9,1470.1,1487.9,1510,1519.5,1533.9,1544.3,1554.4,1564.9,1574.8,1583.7,1593.4,1601.4,1609.1,1616.4,1620.7,1619.8,1622.5,1626,1629.8,1633.7,1638.6,1644.8,1656.9,1664.6,1674.9,1686.8,1697.9,1702.7,1709.7,1712.9,1714.9,1715.6,1713.6,1712.1,1710.8,1716.8,1719.5,1724.9,1729.6,1730.7,1738.2,1746.2,1754.2,1760.5,1765.9,1768.2,1767.3,1762.1,1757.4,1759.2,1754.2,1747.2,1747.6,1749.1,1753.5,1758.5,1763,1766.2,1768.7,1770.8,1773.6,1783.9,1778,1778.6,1775.8,1773.4,1773.3,1770.3,1769.9,1768.8,1766.6,1766.6,1769.5,1769.3,1769.9,1763.3,1761.8,1767.2,1766.1,1764.2,1762.6,1755,1761.2,1762.5,1764.3,1766.1,1767.5,1762.9,1763.3,1761.7,1758.9,1756.9,1753.5,1750.4,1745.6,1747.6,1743,1738.4,1735.5,1727.3,1726.4,1726,1728.3,1728.8,1729.6,1730.7,1728.1,1732.6,1729.5,1724.8,1718,1703.2,1693.5,1684.4,1678.1,1670.5,1664.3,1657.9,1651.6,1647.8,1653.7,1652.4,1652.4,1640.4,1644.8,1643.8,1643.4,1641.2,1636.7,1632,1625.7,1618.4,1613.6,1605.1,1595.9,1581.5,1576.5,1565.2,1550,1540.3,1539.6,1526.5,1524.5,1517.5,1512.6,1506.9,1495.6,1496.5,1489.9,1483.6,1478.1,1464.8,1464.1,1457.2,1449.6,1442.5,1437.8,1429.7,1417,1409.5,1401.4,1391.7,1383.1,1373,1362.9,1351.3,1344.2,1333.5,1322.2,1310.3,1295.8,1285.5,1275.3,1266.6,1258.1,1248.2,1241.7,1232.4,1224.3,1222.3,1216.2,1209,1197.3,1189.6,1181.8,1172.6,1163.3,1153,1141.7,1130.8,1118.1,1107.1,1099.5,1082.7,1067.9,1060.1,1049.7,1040.5,1030.7,1020.8,1012.4,1003,994.91,986.64,980.05,973.54,962.96,955.8,949,942.47,936.43,928.61,925.65,918.75,909.67,901.26,891.6,882.17,867.86,858.1,848.5,838.91,829.53,821.21,813.75,806.08,802.79,795.39,789.15,778.74,771.83,764.94,758.28,751.52,746.04,738.98,732.93,726.92,720.69,715.94,712.7,706.1,700.79,695.29,689.5,684.26,678.72,672.15,666.21,658.94,651.84,645.73,640.84,631.67,625.25,618.31,611.63,605.88,599.07,592.87,586.7,580.76,574.6,568.47,562.38,556.13,550.44,542.41,538.47,531.69,525.94,522.03,516.91,511.85,506.98,502.16,497.31,492.67,487.76,483.23,477.81,472.94,467.54,461.74,455.95,449.77,442.94,437.42,430.66,424.4,418.31,412.35,406.09,400.22,393.96,388.44,382.89,376.88,371.21,366.26,360.96,356,351.45,346.68,342.24,338.25,334.06,330.35,326.36,322.66,318.82,315.74,312.27,308.17,304.58,300.43,296.92,293.11,288.92,284.91,280.88,276.53,272.47,268.29,263.99,259.57,254.92,250.33,246.41,242.32,238.3,234.48,230.89,226.96,223.64,219.99,216.35,212.93,209.61,206.14,202.6,198.98,195.63,192.2,188.43,184.88,181.53,178.13,174.6,171.36,167.97,164.69,161.12,157.77,154.34,150.95,147.62,144.55,141.38,138.21,135.2,132.41,129.2,126.25,123.4,120.67,117.76,115.23,112.56,109.97,107.37,105.01,102.65,100.21,98.088,95.878,93.65,91.555,89.537,87.359,85.253,83.12,81.185,79.013,77.128,75.25,73.573,71.929,70.842
0.97854,1.0826,1.1858,1.2629,1.3239,1.3974,1.4485,1.5534,1.6047,1.6542,1.6909,1.7598,1.8133,1.8278,1.8931,1.9878,2.0217,2.0833,2.1162,2.1578,2.2124,2.2659,2.2995,2.3949,2.4124,2.4617,2.427,2.5142,2.5792,2.5838,2.6158,2.6776,2.6849,2.7846,2.816,2.8022,2.8531,2.863,2.9542,3.0223,3.1368,3.2349,3.3995,3.535,3.829,4.0998,4.4042,4.9272,5.5892,6.3756,7.4373,8.5017,10.076,11.752,13.941,16.49,19.314,22.207,25.446,28.548,31.736,34.927,38.402,41.948,45.205,48.64,52.648,56.514,60.022,63.406,67.775,71.669,75.58,79.435,83.093,86.897,90.498,94.325,98.418,102.69,106.85,111.23,115.57,120.25,125.54,130.44,135.4,140.51,145.56,151.01,156.56,162.22,167.73,173.32,178.96,185.89,191.2,198.89,205.53,210.47,217.3,224.56,230.79,237.43,244.26,251.54,259.2,267.06,275.05,282.89,290.91,297.86,305.78,313.65,321.96,330.37,338.83,347.88,357.13,368.32,377.95,387.68,397.15,404.46,413.58,422.79,432.69,443.41,454.59,465.79,477.72,486.91,496.23,505.44,514.86,523.43,533.87,544.71,555.61,566.96,577.14,587.46,597.47,607.21,617.18,629.52,639.43,647,657.25,667.84,679.53,691.63,702.77,714.94,726.1,736.67,746.86,757.38,770.84,776.42,788.94,804.91,818.29,831.77,844.72,854.37,868.31,878.14,887.27,896.3,905.71,913.42,924.57,935.83,947.75,961.45,971.46,981.24,989.67,997.86,1005.9,1017.7,1024.9,1027,1033.5,1040.8,1048.9,1056.4,1063.8,1071.3,1078.2,1085.8,1093.3,1100.4,1107.9,1109.5,1114.4,1124.4,1130.1,1135.8,1139.3,1152.6,1162.3,1172.3,1182.7,1192.8,1202.3,1205.7,1212.7,1218.9,1226.6,1233.4,1243.7,1254.8,1267.2,1287,1304,1320.3,1337.6,1348,1362.4,1377,1390.4,1403.3,1417.6,1431.1,1445.5,1460.9,1478,1500,1509.6,1523.7,1533.8,1544.2,1554.6,1564,1572.7,1582.3,1590.2,1597.9,1605.5,1609.7,1608.6,1610.9,1614.3,1618.1,1622.3,1626.9,1632.7,1645,1652.5,1662.8,1675.3,1686,1690.7,1697,1700.4,1702.8,1703.1,1701.2,1699.1,1697.7,1704,1706.6,1711.9,1717.1,1717.4,1724.7,1732.8,1740.9,1746.9,1752.3,1754.6,1753.1,1747.8,1743.6,1745,1740.6,1733,1733.1,1734.7,1739.3,1744.4,1748.6,1752.4,1754.6,1756.7,1760.1,1769.2,1763.5,1763.7,1761.7,1758.4,1758.7,1756.4,1755.3,1754,1751.7,1751.9,1755.1,1755.4,1755.9,1749,1747.6,1753,1751.9,1749.3,1748.1,1740.4,1746.3,1747.9,1749.5,1751.3,1752.9,1747.7,1747.8,1746.6,1743.7,1741.9,1738.1,1735.8,1730.5,1732.4,1728.1,1723.1,1720.6,1712.3,1711.4,1711.2,1713.5,1713.9,1714.6,1714.7,1712.8,1717.7,1714.1,1709.4,1703.5,1688.4,1678.6,1669.9,1663.8,1656.1,1650.6,1643.8,1637.4,1633.7,1639.3,1638.2,1637.4,1626.2,1630.3,1629.7,1629.7,1627,1622.9,1617.5,1611.3,1604,1599.6,1590.8,1581.7,1566.9,1561.9,1550.9,1535.7,1526.8,1525.8,1512.5,1510.8,1504,1499.1,1493.7,1482.1,1483.3,1476.4,1470.7,1465.2,1451.5,1451.2,1444.1,1436.2,1429.8,1424.5,1416.3,1404.4,1395.7,1388.3,1378.9,1370.5,1359.9,1349.8,1338.4,1331.4,1321.4,1310.1,1298.3,1283.8,1273.2,1263.6,1254.7,1246.3,1236.4,1230.3,1220.5,1212.7,1210.6,1204.2,1197.1,1186.2,1178.4,1170.5,1161.7,1152.5,1142.1,1131.2,1120,1107.4,1096.5,1088.8,1072.1,1057.2,1049.8,1039.7,1030,1020.6,1010.6,1002.3,993.44,985.12,977.54,970.83,964.08,953.53,946.79,939.63,933.28,927.12,919.48,916.56,909.04,900.37,892.17,882.23,873.74,859.14,849.61,840.13,830.33,821.43,812.92,805.83,798.27,794.88,787.51,781.25,771.54,764.83,757.9,750.89,744.24,738.75,732.04,725.69,719.92,713.98,709.11,705.68,699.21,693.91,688.86,682.98,677.83,672.1,665.87,659.39,652.18,645.53,639.6,634.58,625.73,619.06,612.6,605.83,600.08,593.2,587.34,580.92,574.95,568.79,562.94,556.61,550.69,545.15,537.37,533.16,526.38,520.83,516.66,511.68,506.61,501.89,497.07,492.2,487.97,482.99,478.6,473,468.21,462.98,457.14,451.54,445.41,438.71,433.03,426.66,420.21,414.58,408.09,402.27,396.31,390.35,384.58,378.98,373.15,367.61,362.95,357.78,352.55,348.12,343.41,339.04,335.26,331.03,327.24,323.38,319.74,316.08,312.8,309.47,305.52,301.88,297.95,294.07,290.46,286.23,282.27,278.17,274.03,269.9,265.89,261.41,256.99,252.43,247.98,244.04,239.85,235.99,232.59,228.69,224.83,221.3,218,214.36,210.92,207.53,204,200.71,197.04,193.73,190.16,186.67,183.17,179.68,176.24,173.03,169.81,166.26,163.13,159.6,156.3,152.85,149.58,146.31,143.08,139.95,136.83,133.79,130.91,127.92,125.07,122.23,119.54,116.82,114.11,111.5,108.85,106.41,104.15,101.89,99.331,97.235,94.929,92.884,90.725,88.701,86.619,84.417,82.358,80.473,78.463,76.336,74.493,72.892,71.247,69.965
0.94368,1.071,1.1715,1.2328,1.2932,1.3744,1.4862,1.5505,1.5447,1.6695,1.719,1.7285,1.7513,1.8751,1.8735,1.9635,1.9974,2.0575,2.1072,2.1611,2.2619,2.2603,2.3004,2.4132,2.4331,2.5221,2.4844,2.5477,2.5119,2.6173,2.6644,2.6211,2.7653,2.796,2.8226,2.8387,2.9042,2.9476,2.9642,3.0991,3.1394,3.2463,3.3917,3.5375,3.8145,4.1123,4.4176,4.9128,5.5628,6.2961,7.501,8.5237,9.9562,11.798,13.915,16.407,19.125,22.116,25.19,28.356,31.492,34.675,38.088,41.642,44.782,48.292,52.352,55.95,59.839,62.996,67.351,71.278,75.089,78.91,82.578,86.292,89.997,93.777,97.89,102.05,106.25,110.58,115.06,119.4,124.88,129.87,134.66,139.69,144.82,150.33,155.83,161.41,166.95,172.46,177.98,184.95,190.31,198.12,204.61,209.6,216.2,223.34,229.76,236.39,243.21,250.41,257.78,265.9,273.82,281.8,289.77,296.59,304.36,312.49,320.63,329.13,337.66,346.97,355.95,366.91,376.58,386.44,395.69,403.37,412.21,421.34,431.45,442.26,453.47,464.41,476.62,486.01,495.26,504.29,514.1,522.35,533.05,543.78,555.32,565.83,576.16,586.83,597.11,606.53,616.75,629.06,639.06,646.95,657.28,667.97,679.77,692.05,703.56,715.51,726.95,737.89,748.17,758.54,771.88,778.15,790.67,806.79,820.41,834.07,847.28,856.78,870.79,880.86,889.93,899.29,908.89,916.37,928.02,939.63,951.44,964.89,975.12,985.2,993.28,1002.1,1009.6,1021.6,1029.2,1031.1,1038.2,1045.4,1053.1,1060.8,1067.9,1075.9,1082.7,1090.5,1098.4,1105.4,1112.6,1114.3,1119.6,1129.5,1135.2,1141.1,1144.9,1158.4,1168.2,1178.2,1188.8,1199.1,1208.5,1212.1,1218.9,1225.6,1233.2,1240.2,1250.2,1261.4,1274.6,1294.3,1311.5,1327.8,1345.2,1355.7,1370.4,1384.7,1398.3,1411.5,1425.5,1440,1453.9,1469.4,1486.8,1508.7,1518.6,1532.4,1542.9,1553.4,1563.8,1573.6,1582.1,1592.1,1600,1607,1615,1619,1617.8,1620.7,1624.2,1628,1632.1,1636.9,1643.4,1655.6,1662.7,1673.4,1685.6,1696.3,1701.1,1707.6,1711.4,1713.6,1713.8,1711.6,1709.2,1708.5,1715.1,1717.6,1723,1727.6,1728.7,1736.2,1744,1752.4,1758.6,1763.9,1766.4,1765.3,1759.2,1754.9,1756.4,1752.1,1744.6,1744.5,1746.1,1751.1,1756.3,1760.8,1764.3,1766.2,1768.7,1772.4,1781.3,1776,1775.9,1773.1,1770.4,1770.4,1768.4,1767.6,1766.3,1764,1764.3,1767.2,1767.8,1767.9,1761.1,1759.6,1765.3,1763.9,1761.8,1759.9,1752.9,1758.8,1759.9,1762,1763.7,1765.3,1760.4,1760,1759.2,1756.2,1754.4,1750.4,1748.4,1743.1,1745.2,1740.8,1736.1,1733.4,1725.1,1724,1723.8,1726.2,1727.1,1727.4,1728,1725.9,1730.6,1727.1,1722.1,1715.9,1701,1691.7,1682.6,1676,1668.7,1663,1656,1649.3,1645.8,1651.8,1650.7,1650.1,1638.8,1643.1,1642.1,1641.8,1640,1635.3,1630.4,1623.8,1616.7,1612,1603.8,1594.2,1579.3,1574.2,1563.4,1548,1538.9,1538.1,1524.3,1523,1516.2,1511,1505.2,1493.9,1494.6,1487.9,1482.1,1476.6,1463.2,1462.4,1455.3,1447.3,1441,1435.7,1427.8,1415.6,1407,1398.7,1389.2,1381.2,1370.9,1360.6,1349,1342.1,1331.7,1320.1,1308.6,1293.9,1283.6,1273.4,1264.4,1256.4,1246.2,1239.3,1229.9,1222.4,1220.2,1214.1,1206.6,1195,1187.5,1179.5,1170.3,1161.4,1151,1139.6,1128.8,1115.8,1105,1097.4,1080.4,1065.2,1058.3,1047.6,1038.1,1028.8,1018.8,1010.6,1001.6,993.43,985.04,978.36,972.06,961.41,954.06,947.17,941.05,934.25,927.05,923.83,916.44,907.93,899.56,889.77,880.44,866.11,856.39,846.71,836.85,828.11,818.99,812.12,804.17,801.15,793.74,787.34,777.14,770.52,763.67,756.85,750.14,744.41,737.61,731.41,725.69,719.82,714.59,711.5,704.76,699.28,694.05,688.36,682.95,677.42,671.22,664.63,657.43,650.53,644.37,639.33,630.52,624.08,617.19,610.63,604.76,597.76,591.76,585.38,579.38,573.28,567.71,560.94,555.07,549.21,541.71,537.69,530.64,524.86,521.13,516.08,511.27,506.46,501.48,496.57,492.02,487.06,482.5,476.81,472.36,466.99,461.12,455.15,449.06,442.39,436.64,429.9,423.7,417.9,411.36,405.32,399.52,393.6,387.83,382.15,376.29,370.79,365.79,360.49,355.5,350.71,346.02,341.78,337.76,333.43,329.84,326.01,322.26,318.65,315.32,311.7,307.85,304.49,300.21,296.41,292.71,288.49,284.6,280.57,276.4,271.93,267.75,263.41,259.13,254.38,249.83,245.9,241.97,237.94,234.33,230.62,226.58,223.19,219.57,216.13,212.59,209.12,205.72,202.24,198.81,195.26,191.98,188.14,184.49,180.91,177.71,174.29,171.05,167.7,164.4,160.99,157.36,154.17,150.68,147.42,144.18,141.09,137.98,134.9,131.96,128.84,125.87,123.11,120.48,117.66,115.04,112.36,109.65,107.15,104.84,102.47,100.17,97.99,95.686,93.553,91.423,89.427,87.312,85.206,82.981,80.899,78.892,76.975,75.101,73.323,71.705,70.6
